PE UV       SUBTECH     SPECTRUM    ASCII       PEDS        4.00        
   -1
Sample2.Sample.Raw.asc
25/05/30
11:25:10.00
25/05/30
11:25:10.00
tom jordan
JJC R1
175.000000
1
Lambda 1050
1050L1807051
PerkinElmer UV WinLab 6.4.0.973 / 2.02.06 Lambda 900 UV/VIS/NIR, Jan 28 2016 16:58:34

0
0
3350/servo 860.8/2
0
0
UV/VIS
1
1
1
RBeamAtt,SBeamAtt,150mm sphere / downward view, WB InGaAs Detector
0
0
0
0
Program
Program
3350/servo 860.8/2
3350/0.2 860.8/0.2
3350/0.2 860.8/0.2
0
1.00
 
 
 
0
 
860.8
319.2
860.8
Front
100
 
S:100 R:100
 
0
0
0
 
0
 
 
 
0
 
 
0
0
0
0
0
 
 
 
 
0
0


0
0
#HDR
-1
-1
#GR
nm
A
1.0
0.0
2000.000000
-1.000000
1826
8
1.214215
-0.023776
#DATA
2000.000000	0.993717
1999.000000	0.982493
1998.000000	0.993766
1997.000000	0.984508
1996.000000	0.994320
1995.000000	1.001221
1994.000000	1.003283
1993.000000	0.999794
1992.000000	0.980415
1991.000000	0.981435
1990.000000	0.979009
1989.000000	0.991936
1988.000000	0.993600
1987.000000	0.993016
1986.000000	0.998722
1985.000000	0.984119
1984.000000	1.010703
1983.000000	1.008254
1982.000000	1.003168
1981.000000	1.018256
1980.000000	0.997546
1979.000000	1.000158
1978.000000	0.992933
1977.000000	1.001410
1976.000000	0.981041
1975.000000	0.992448
1974.000000	1.002039
1973.000000	0.986315
1972.000000	0.984581
1971.000000	0.995889
1970.000000	0.986178
1969.000000	0.983968
1968.000000	0.991937
1967.000000	1.008652
1966.000000	1.000946
1965.000000	0.987881
1964.000000	0.991723
1963.000000	0.989701
1962.000000	0.994478
1961.000000	0.985772
1960.000000	0.996045
1959.000000	0.990886
1958.000000	1.013635
1957.000000	1.003626
1956.000000	0.994079
1955.000000	1.007929
1954.000000	1.004045
1953.000000	1.011413
1952.000000	1.000021
1951.000000	1.007079
1950.000000	0.986775
1949.000000	0.986936
1948.000000	0.987416
1947.000000	0.988237
1946.000000	1.000146
1945.000000	0.994623
1944.000000	0.980418
1943.000000	0.978405
1942.000000	0.989544
1941.000000	0.995257
1940.000000	0.991868
1939.000000	0.988431
1938.000000	0.976123
1937.000000	0.980908
1936.000000	0.987209
1935.000000	0.974193
1934.000000	0.985250
1933.000000	1.009057
1932.000000	0.991361
1931.000000	0.983804
1930.000000	0.998071
1929.000000	1.004959
1928.000000	0.992165
1927.000000	0.989705
1926.000000	0.990102
1925.000000	1.003562
1924.000000	1.001808
1923.000000	0.992136
1922.000000	0.991605
1921.000000	1.012277
1920.000000	0.992213
1919.000000	0.980848
1918.000000	0.966570
1917.000000	0.986587
1916.000000	0.997280
1915.000000	0.982230
1914.000000	0.972773
1913.000000	0.954669
1912.000000	0.973282
1911.000000	0.975129
1910.000000	0.965986
1909.000000	0.972603
1908.000000	0.988424
1907.000000	0.993611
1906.000000	0.984478
1905.000000	0.972828
1904.000000	0.977169
1903.000000	0.980192
1902.000000	0.976403
1901.000000	0.985089
1900.000000	0.998099
1899.000000	0.990458
1898.000000	0.987003
1897.000000	0.983604
1896.000000	0.984191
1895.000000	0.984787
1894.000000	0.980719
1893.000000	0.989327
1892.000000	0.993201
1891.000000	0.980455
1890.000000	0.981384
1889.000000	0.984333
1888.000000	0.982229
1887.000000	0.991839
1886.000000	0.988760
1885.000000	0.984416
1884.000000	0.987705
1883.000000	0.988193
1882.000000	0.990543
1881.000000	0.989970
1880.000000	0.988185
1879.000000	0.982686
1878.000000	0.987616
1877.000000	0.990856
1876.000000	0.991112
1875.000000	0.987250
1874.000000	0.982802
1873.000000	0.980852
1872.000000	0.980387
1871.000000	0.989210
1870.000000	0.982683
1869.000000	0.972188
1868.000000	0.982642
1867.000000	0.991433
1866.000000	0.990233
1865.000000	0.981489
1864.000000	0.975054
1863.000000	0.985733
1862.000000	0.982258
1861.000000	0.987460
1860.000000	0.987624
1859.000000	0.978280
1858.000000	0.976691
1857.000000	0.974923
1856.000000	0.984614
1855.000000	0.981206
1854.000000	0.990393
1853.000000	0.981437
1852.000000	0.977321
1851.000000	0.985863
1850.000000	0.977221
1849.000000	0.973641
1848.000000	0.978234
1847.000000	0.985176
1846.000000	0.984038
1845.000000	0.986087
1844.000000	0.994138
1843.000000	0.983246
1842.000000	0.986133
1841.000000	0.990960
1840.000000	0.984457
1839.000000	0.988005
1838.000000	0.983139
1837.000000	0.988627
1836.000000	0.987860
1835.000000	0.986742
1834.000000	0.981747
1833.000000	0.976806
1832.000000	0.982523
1831.000000	0.985812
1830.000000	0.990127
1829.000000	0.988928
1828.000000	0.983381
1827.000000	0.985883
1826.000000	0.983282
1825.000000	0.983046
1824.000000	0.985895
1823.000000	0.988916
1822.000000	0.989729
1821.000000	0.985375
1820.000000	0.986386
1819.000000	0.982808
1818.000000	0.984740
1817.000000	0.990343
1816.000000	0.986023
1815.000000	0.985686
1814.000000	0.984051
1813.000000	0.983589
1812.000000	0.985124
1811.000000	0.987741
1810.000000	0.989600
1809.000000	0.987491
1808.000000	0.989432
1807.000000	0.994699
1806.000000	0.985588
1805.000000	0.988302
1804.000000	0.988969
1803.000000	0.983641
1802.000000	0.984454
1801.000000	0.987377
1800.000000	0.986649
1799.000000	0.978563
1798.000000	0.984062
1797.000000	0.982790
1796.000000	0.982799
1795.000000	0.985422
1794.000000	0.986529
1793.000000	0.991200
1792.000000	0.988810
1791.000000	0.985557
1790.000000	0.982989
1789.000000	0.982028
1788.000000	0.980971
1787.000000	0.978641
1786.000000	0.984911
1785.000000	0.984235
1784.000000	0.989669
1783.000000	0.988178
1782.000000	0.987149
1781.000000	0.979211
1780.000000	0.978042
1779.000000	0.980723
1778.000000	0.973111
1777.000000	0.982572
1776.000000	0.989396
1775.000000	0.979963
1774.000000	0.981475
1773.000000	0.984089
1772.000000	0.981410
1771.000000	0.986058
1770.000000	0.985422
1769.000000	0.985038
1768.000000	0.981830
1767.000000	0.978293
1766.000000	0.975836
1765.000000	0.977746
1764.000000	0.979700
1763.000000	0.982699
1762.000000	0.983166
1761.000000	0.973566
1760.000000	0.980812
1759.000000	0.986264
1758.000000	0.983351
1757.000000	0.980590
1756.000000	0.975442
1755.000000	0.979501
1754.000000	0.981328
1753.000000	0.978774
1752.000000	0.977548
1751.000000	0.970365
1750.000000	0.984007
1749.000000	0.978813
1748.000000	0.984924
1747.000000	0.984867
1746.000000	0.978279
1745.000000	0.977346
1744.000000	0.976061
1743.000000	0.981180
1742.000000	0.983852
1741.000000	0.979871
1740.000000	0.980457
1739.000000	0.982033
1738.000000	0.972778
1737.000000	0.970677
1736.000000	0.967886
1735.000000	0.978504
1734.000000	0.977921
1733.000000	0.977580
1732.000000	0.981319
1731.000000	0.977712
1730.000000	0.976235
1729.000000	0.978185
1728.000000	0.978863
1727.000000	0.971645
1726.000000	0.972464
1725.000000	0.978095
1724.000000	0.981291
1723.000000	0.976121
1722.000000	0.971804
1721.000000	0.975121
1720.000000	0.979050
1719.000000	0.975729
1718.000000	0.973315
1717.000000	0.971393
1716.000000	0.967225
1715.000000	0.967319
1714.000000	0.971194
1713.000000	0.974879
1712.000000	0.971993
1711.000000	0.973923
1710.000000	0.973673
1709.000000	0.979336
1708.000000	0.972893
1707.000000	0.977481
1706.000000	0.975570
1705.000000	0.975813
1704.000000	0.972740
1703.000000	0.971997
1702.000000	0.976170
1701.000000	0.968972
1700.000000	0.970291
1699.000000	0.969875
1698.000000	0.970714
1697.000000	0.969075
1696.000000	0.967277
1695.000000	0.970006
1694.000000	0.973204
1693.000000	0.974372
1692.000000	0.970924
1691.000000	0.966280
1690.000000	0.967749
1689.000000	0.970227
1688.000000	0.973862
1687.000000	0.975160
1686.000000	0.977494
1685.000000	0.976007
1684.000000	0.971791
1683.000000	0.971848
1682.000000	0.971105
1681.000000	0.972734
1680.000000	0.969897
1679.000000	0.970483
1678.000000	0.972928
1677.000000	0.973426
1676.000000	0.972816
1675.000000	0.970977
1674.000000	0.968626
1673.000000	0.968523
1672.000000	0.966847
1671.000000	0.967852
1670.000000	0.971312
1669.000000	0.971908
1668.000000	0.972788
1667.000000	0.969505
1666.000000	0.966748
1665.000000	0.965506
1664.000000	0.963751
1663.000000	0.963802
1662.000000	0.970698
1661.000000	0.970539
1660.000000	0.971117
1659.000000	0.971739
1658.000000	0.969393
1657.000000	0.969238
1656.000000	0.964490
1655.000000	0.964741
1654.000000	0.966450
1653.000000	0.968579
1652.000000	0.967995
1651.000000	0.967766
1650.000000	0.966400
1649.000000	0.967437
1648.000000	0.971946
1647.000000	0.969730
1646.000000	0.967779
1645.000000	0.967279
1644.000000	0.966491
1643.000000	0.965516
1642.000000	0.967334
1641.000000	0.965580
1640.000000	0.962361
1639.000000	0.965601
1638.000000	0.965371
1637.000000	0.965872
1636.000000	0.965554
1635.000000	0.965833
1634.000000	0.966073
1633.000000	0.963460
1632.000000	0.963114
1631.000000	0.961478
1630.000000	0.962600
1629.000000	0.964210
1628.000000	0.966233
1627.000000	0.965131
1626.000000	0.962693
1625.000000	0.959997
1624.000000	0.961437
1623.000000	0.961167
1622.000000	0.958303
1621.000000	0.963568
1620.000000	0.961593
1619.000000	0.960821
1618.000000	0.960790
1617.000000	0.961975
1616.000000	0.966254
1615.000000	0.963611
1614.000000	0.963971
1613.000000	0.965854
1612.000000	0.964908
1611.000000	0.960770
1610.000000	0.960197
1609.000000	0.959619
1608.000000	0.961673
1607.000000	0.960408
1606.000000	0.961993
1605.000000	0.960982
1604.000000	0.958413
1603.000000	0.962523
1602.000000	0.963773
1601.000000	0.958980
1600.000000	0.961222
1599.000000	0.965427
1598.000000	0.963453
1597.000000	0.962308
1596.000000	0.961635
1595.000000	0.961475
1594.000000	0.965270
1593.000000	0.961250
1592.000000	0.957164
1591.000000	0.957971
1590.000000	0.963519
1589.000000	0.956265
1588.000000	0.956667
1587.000000	0.956905
1586.000000	0.956668
1585.000000	0.959017
1584.000000	0.959703
1583.000000	0.961760
1582.000000	0.958027
1581.000000	0.958086
1580.000000	0.962112
1579.000000	0.958020
1578.000000	0.959496
1577.000000	0.959282
1576.000000	0.962235
1575.000000	0.960958
1574.000000	0.961533
1573.000000	0.956402
1572.000000	0.957841
1571.000000	0.960756
1570.000000	0.957671
1569.000000	0.958817
1568.000000	0.957759
1567.000000	0.951434
1566.000000	0.954596
1565.000000	0.955610
1564.000000	0.955914
1563.000000	0.953192
1562.000000	0.954265
1561.000000	0.956469
1560.000000	0.954907
1559.000000	0.954415
1558.000000	0.955522
1557.000000	0.952793
1556.000000	0.954384
1555.000000	0.952713
1554.000000	0.954438
1553.000000	0.950295
1552.000000	0.956869
1551.000000	0.955220
1550.000000	0.954292
1549.000000	0.954586
1548.000000	0.955943
1547.000000	0.955220
1546.000000	0.953666
1545.000000	0.954164
1544.000000	0.954025
1543.000000	0.954140
1542.000000	0.950708
1541.000000	0.952780
1540.000000	0.952654
1539.000000	0.952687
1538.000000	0.953864
1537.000000	0.954275
1536.000000	0.950548
1535.000000	0.952217
1534.000000	0.956012
1533.000000	0.954819
1532.000000	0.950007
1531.000000	0.952129
1530.000000	0.950113
1529.000000	0.948401
1528.000000	0.946010
1527.000000	0.954581
1526.000000	0.948452
1525.000000	0.947581
1524.000000	0.951427
1523.000000	0.945887
1522.000000	0.947734
1521.000000	0.945712
1520.000000	0.949010
1519.000000	0.948688
1518.000000	0.948420
1517.000000	0.948549
1516.000000	0.948511
1515.000000	0.951154
1514.000000	0.951126
1513.000000	0.949481
1512.000000	0.947376
1511.000000	0.949405
1510.000000	0.949393
1509.000000	0.943515
1508.000000	0.944134
1507.000000	0.943056
1506.000000	0.949131
1505.000000	0.950105
1504.000000	0.950804
1503.000000	0.949067
1502.000000	0.946515
1501.000000	0.945066
1500.000000	0.942526
1499.000000	0.939916
1498.000000	0.943360
1497.000000	0.945997
1496.000000	0.947219
1495.000000	0.944625
1494.000000	0.945960
1493.000000	0.943065
1492.000000	0.944385
1491.000000	0.945244
1490.000000	0.945601
1489.000000	0.944712
1488.000000	0.939428
1487.000000	0.941576
1486.000000	0.940236
1485.000000	0.944190
1484.000000	0.943488
1483.000000	0.943831
1482.000000	0.943308
1481.000000	0.941202
1480.000000	0.945637
1479.000000	0.941373
1478.000000	0.944933
1477.000000	0.943172
1476.000000	0.943996
1475.000000	0.940012
1474.000000	0.941012
1473.000000	0.942531
1472.000000	0.942666
1471.000000	0.943543
1470.000000	0.938154
1469.000000	0.936320
1468.000000	0.936149
1467.000000	0.938828
1466.000000	0.938496
1465.000000	0.939881
1464.000000	0.940648
1463.000000	0.939707
1462.000000	0.940239
1461.000000	0.937968
1460.000000	0.937966
1459.000000	0.935294
1458.000000	0.938338
1457.000000	0.942876
1456.000000	0.937972
1455.000000	0.937987
1454.000000	0.938188
1453.000000	0.935883
1452.000000	0.935055
1451.000000	0.935878
1450.000000	0.936980
1449.000000	0.938590
1448.000000	0.938279
1447.000000	0.935761
1446.000000	0.935057
1445.000000	0.935923
1444.000000	0.934118
1443.000000	0.937660
1442.000000	0.935996
1441.000000	0.935961
1440.000000	0.934884
1439.000000	0.934116
1438.000000	0.934022
1437.000000	0.934584
1436.000000	0.935837
1435.000000	0.937000
1434.000000	0.935711
1433.000000	0.935328
1432.000000	0.932702
1431.000000	0.934118
1430.000000	0.935019
1429.000000	0.935038
1428.000000	0.935106
1427.000000	0.934681
1426.000000	0.934186
1425.000000	0.931344
1424.000000	0.930845
1423.000000	0.929770
1422.000000	0.931533
1421.000000	0.932471
1420.000000	0.928463
1419.000000	0.928833
1418.000000	0.930415
1417.000000	0.931299
1416.000000	0.929687
1415.000000	0.929456
1414.000000	0.930888
1413.000000	0.929952
1412.000000	0.929517
1411.000000	0.931298
1410.000000	0.930579
1409.000000	0.928571
1408.000000	0.926748
1407.000000	0.927822
1406.000000	0.927219
1405.000000	0.926889
1404.000000	0.928568
1403.000000	0.928644
1402.000000	0.927963
1401.000000	0.929275
1400.000000	0.928197
1399.000000	0.924723
1398.000000	0.926109
1397.000000	0.925522
1396.000000	0.925704
1395.000000	0.927496
1394.000000	0.926230
1393.000000	0.925953
1392.000000	0.926339
1391.000000	0.927682
1390.000000	0.927365
1389.000000	0.928331
1388.000000	0.928207
1387.000000	0.927250
1386.000000	0.926824
1385.000000	0.926327
1384.000000	0.926480
1383.000000	0.923338
1382.000000	0.922797
1381.000000	0.926226
1380.000000	0.924988
1379.000000	0.923702
1378.000000	0.923939
1377.000000	0.925372
1376.000000	0.926005
1375.000000	0.924381
1374.000000	0.924164
1373.000000	0.922355
1372.000000	0.922118
1371.000000	0.923404
1370.000000	0.922420
1369.000000	0.922933
1368.000000	0.920838
1367.000000	0.920944
1366.000000	0.922761
1365.000000	0.924082
1364.000000	0.923871
1363.000000	0.921001
1362.000000	0.921972
1361.000000	0.923091
1360.000000	0.921428
1359.000000	0.919059
1358.000000	0.919780
1357.000000	0.919472
1356.000000	0.919401
1355.000000	0.921613
1354.000000	0.919728
1353.000000	0.919369
1352.000000	0.921556
1351.000000	0.919315
1350.000000	0.920886
1349.000000	0.920575
1348.000000	0.920584
1347.000000	0.919906
1346.000000	0.919502
1345.000000	0.918458
1344.000000	0.917989
1343.000000	0.918719
1342.000000	0.917450
1341.000000	0.917716
1340.000000	0.916227
1339.000000	0.916544
1338.000000	0.915765
1337.000000	0.917103
1336.000000	0.918360
1335.000000	0.917202
1334.000000	0.915850
1333.000000	0.914991
1332.000000	0.916125
1331.000000	0.917236
1330.000000	0.916937
1329.000000	0.916556
1328.000000	0.915979
1327.000000	0.917091
1326.000000	0.916002
1325.000000	0.913854
1324.000000	0.914933
1323.000000	0.916168
1322.000000	0.914369
1321.000000	0.914037
1320.000000	0.913134
1319.000000	0.914034
1318.000000	0.912028
1317.000000	0.911756
1316.000000	0.912091
1315.000000	0.912867
1314.000000	0.914915
1313.000000	0.913903
1312.000000	0.911934
1311.000000	0.911335
1310.000000	0.910389
1309.000000	0.911964
1308.000000	0.910638
1307.000000	0.910637
1306.000000	0.911401
1305.000000	0.912067
1304.000000	0.909446
1303.000000	0.910200
1302.000000	0.911106
1301.000000	0.908913
1300.000000	0.912090
1299.000000	0.909062
1298.000000	0.909500
1297.000000	0.909880
1296.000000	0.907620
1295.000000	0.908340
1294.000000	0.908400
1293.000000	0.909830
1292.000000	0.907583
1291.000000	0.906939
1290.000000	0.908456
1289.000000	0.907884
1288.000000	0.907165
1287.000000	0.907750
1286.000000	0.909391
1285.000000	0.905830
1284.000000	0.908121
1283.000000	0.905664
1282.000000	0.905983
1281.000000	0.906998
1280.000000	0.907897
1279.000000	0.908708
1278.000000	0.904933
1277.000000	0.904176
1276.000000	0.904018
1275.000000	0.904717
1274.000000	0.904266
1273.000000	0.903727
1272.000000	0.905477
1271.000000	0.902255
1270.000000	0.903695
1269.000000	0.902518
1268.000000	0.901671
1267.000000	0.900651
1266.000000	0.902674
1265.000000	0.901384
1264.000000	0.902960
1263.000000	0.900750
1262.000000	0.903286
1261.000000	0.899488
1260.000000	0.899851
1259.000000	0.898766
1258.000000	0.901419
1257.000000	0.900402
1256.000000	0.897754
1255.000000	0.898463
1254.000000	0.897109
1253.000000	0.897998
1252.000000	0.898217
1251.000000	0.898795
1250.000000	0.898298
1249.000000	0.897677
1248.000000	0.897975
1247.000000	0.897323
1246.000000	0.896610
1245.000000	0.897208
1244.000000	0.897086
1243.000000	0.897491
1242.000000	0.896368
1241.000000	0.898568
1240.000000	0.895534
1239.000000	0.895296
1238.000000	0.897152
1237.000000	0.894770
1236.000000	0.895863
1235.000000	0.894817
1234.000000	0.893487
1233.000000	0.894429
1232.000000	0.894130
1231.000000	0.894360
1230.000000	0.893875
1229.000000	0.893321
1228.000000	0.892582
1227.000000	0.893350
1226.000000	0.893587
1225.000000	0.891314
1224.000000	0.892178
1223.000000	0.892151
1222.000000	0.891754
1221.000000	0.890858
1220.000000	0.891812
1219.000000	0.891890
1218.000000	0.891493
1217.000000	0.891405
1216.000000	0.892416
1215.000000	0.890848
1214.000000	0.890945
1213.000000	0.890437
1212.000000	0.890099
1211.000000	0.890437
1210.000000	0.890080
1209.000000	0.889043
1208.000000	0.888677
1207.000000	0.887785
1206.000000	0.887854
1205.000000	0.888519
1204.000000	0.888333
1203.000000	0.888134
1202.000000	0.887060
1201.000000	0.887030
1200.000000	0.886964
1199.000000	0.887530
1198.000000	0.886152
1197.000000	0.885715
1196.000000	0.886458
1195.000000	0.886251
1194.000000	0.886172
1193.000000	0.884973
1192.000000	0.884631
1191.000000	0.883036
1190.000000	0.883298
1189.000000	0.883405
1188.000000	0.882422
1187.000000	0.883713
1186.000000	0.883746
1185.000000	0.883788
1184.000000	0.883144
1183.000000	0.882753
1182.000000	0.882355
1181.000000	0.882870
1180.000000	0.882566
1179.000000	0.881490
1178.000000	0.880757
1177.000000	0.880228
1176.000000	0.880636
1175.000000	0.880666
1174.000000	0.880421
1173.000000	0.880565
1172.000000	0.879947
1171.000000	0.880271
1170.000000	0.881434
1169.000000	0.881271
1168.000000	0.880400
1167.000000	0.879348
1166.000000	0.879348
1165.000000	0.878939
1164.000000	0.878262
1163.000000	0.878383
1162.000000	0.878736
1161.000000	0.877983
1160.000000	0.876856
1159.000000	0.876172
1158.000000	0.876487
1157.000000	0.877421
1156.000000	0.876526
1155.000000	0.875857
1154.000000	0.875686
1153.000000	0.875823
1152.000000	0.875144
1151.000000	0.875164
1150.000000	0.876279
1149.000000	0.876393
1148.000000	0.874937
1147.000000	0.874608
1146.000000	0.875930
1145.000000	0.874847
1144.000000	0.872917
1143.000000	0.871852
1142.000000	0.873039
1141.000000	0.873862
1140.000000	0.874762
1139.000000	0.874304
1138.000000	0.873248
1137.000000	0.871450
1136.000000	0.870363
1135.000000	0.870328
1134.000000	0.869236
1133.000000	0.869310
1132.000000	0.869111
1131.000000	0.870398
1130.000000	0.871372
1129.000000	0.869879
1128.000000	0.869098
1127.000000	0.868771
1126.000000	0.868585
1125.000000	0.868621
1124.000000	0.869679
1123.000000	0.869316
1122.000000	0.868724
1121.000000	0.868474
1120.000000	0.868703
1119.000000	0.866521
1118.000000	0.867584
1117.000000	0.869184
1116.000000	0.866945
1115.000000	0.867151
1114.000000	0.866340
1113.000000	0.865338
1112.000000	0.865637
1111.000000	0.866892
1110.000000	0.865720
1109.000000	0.865343
1108.000000	0.861842
1107.000000	0.862611
1106.000000	0.864280
1105.000000	0.864757
1104.000000	0.864081
1103.000000	0.862666
1102.000000	0.862088
1101.000000	0.862298
1100.000000	0.863156
1099.000000	0.861702
1098.000000	0.861720
1097.000000	0.862234
1096.000000	0.863558
1095.000000	0.862889
1094.000000	0.863393
1093.000000	0.860179
1092.000000	0.859212
1091.000000	0.858500
1090.000000	0.859760
1089.000000	0.861554
1088.000000	0.861162
1087.000000	0.860575
1086.000000	0.859317
1085.000000	0.860367
1084.000000	0.858111
1083.000000	0.856700
1082.000000	0.859672
1081.000000	0.856669
1080.000000	0.859987
1079.000000	0.858554
1078.000000	0.859487
1077.000000	0.857115
1076.000000	0.859463
1075.000000	0.856087
1074.000000	0.855621
1073.000000	0.855864
1072.000000	0.854464
1071.000000	0.856425
1070.000000	0.855086
1069.000000	0.857810
1068.000000	0.852215
1067.000000	0.853898
1066.000000	0.856238
1065.000000	0.853455
1064.000000	0.855135
1063.000000	0.852205
1062.000000	0.854335
1061.000000	0.852949
1060.000000	0.852942
1059.000000	0.853139
1058.000000	0.852415
1057.000000	0.852016
1056.000000	0.851669
1055.000000	0.849907
1054.000000	0.850345
1053.000000	0.849573
1052.000000	0.848549
1051.000000	0.849189
1050.000000	0.851315
1049.000000	0.849795
1048.000000	0.850808
1047.000000	0.850663
1046.000000	0.849000
1045.000000	0.848304
1044.000000	0.848646
1043.000000	0.850765
1042.000000	0.847288
1041.000000	0.850119
1040.000000	0.849000
1039.000000	0.848782
1038.000000	0.848075
1037.000000	0.847236
1036.000000	0.845982
1035.000000	0.850134
1034.000000	0.844881
1033.000000	0.848335
1032.000000	0.845995
1031.000000	0.846343
1030.000000	0.845075
1029.000000	0.841800
1028.000000	0.844329
1027.000000	0.843506
1026.000000	0.845632
1025.000000	0.846123
1024.000000	0.844072
1023.000000	0.846488
1022.000000	0.844701
1021.000000	0.845033
1020.000000	0.839542
1019.000000	0.841792
1018.000000	0.838891
1017.000000	0.845047
1016.000000	0.842180
1015.000000	0.843271
1014.000000	0.843532
1013.000000	0.841418
1012.000000	0.841195
1011.000000	0.838400
1010.000000	0.838892
1009.000000	0.839397
1008.000000	0.838046
1007.000000	0.839262
1006.000000	0.836668
1005.000000	0.836320
1004.000000	0.840009
1003.000000	0.835452
1002.000000	0.835876
1001.000000	0.838447
1000.000000	0.837465
999.000000	0.839716
998.000000	0.835994
997.000000	0.835898
996.000000	0.836086
995.000000	0.837753
994.000000	0.837186
993.000000	0.836845
992.000000	0.835948
991.000000	0.837430
990.000000	0.836667
989.000000	0.834081
988.000000	0.833465
987.000000	0.835923
986.000000	0.836119
985.000000	0.836084
984.000000	0.836871
983.000000	0.835145
982.000000	0.834295
981.000000	0.833768
980.000000	0.833995
979.000000	0.833584
978.000000	0.830723
977.000000	0.835415
976.000000	0.832337
975.000000	0.828817
974.000000	0.829805
973.000000	0.828224
972.000000	0.830993
971.000000	0.833584
970.000000	0.834674
969.000000	0.831086
968.000000	0.828955
967.000000	0.827725
966.000000	0.829749
965.000000	0.828326
964.000000	0.825536
963.000000	0.820648
962.000000	0.826443
961.000000	0.827705
960.000000	0.826273
959.000000	0.826990
958.000000	0.826924
957.000000	0.827313
956.000000	0.826585
955.000000	0.828184
954.000000	0.830363
953.000000	0.829627
952.000000	0.825828
951.000000	0.826868
950.000000	0.824346
949.000000	0.823524
948.000000	0.824972
947.000000	0.826587
946.000000	0.821312
945.000000	0.819868
944.000000	0.823396
943.000000	0.820420
942.000000	0.815453
941.000000	0.813601
940.000000	0.820355
939.000000	0.826001
938.000000	0.819824
937.000000	0.820958
936.000000	0.820280
935.000000	0.820086
934.000000	0.825590
933.000000	0.821355
932.000000	0.819124
931.000000	0.819826
930.000000	0.822118
929.000000	0.819896
928.000000	0.817413
927.000000	0.816877
926.000000	0.818566
925.000000	0.822024
924.000000	0.822213
923.000000	0.819683
922.000000	0.816451
921.000000	0.812700
920.000000	0.814370
919.000000	0.815266
918.000000	0.817256
917.000000	0.816475
916.000000	0.810329
915.000000	0.813558
914.000000	0.818974
913.000000	0.816280
912.000000	0.814275
911.000000	0.812417
910.000000	0.809532
909.000000	0.810349
908.000000	0.819183
907.000000	0.820008
906.000000	0.810480
905.000000	0.818293
904.000000	0.820363
903.000000	0.813689
902.000000	0.808387
901.000000	0.802499
900.000000	0.808495
899.000000	0.810892
898.000000	0.812624
897.000000	0.811182
896.000000	0.817134
895.000000	0.812692
894.000000	0.807300
893.000000	0.813813
892.000000	0.817008
891.000000	0.807896
890.000000	0.800229
889.000000	0.808901
888.000000	0.812611
887.000000	0.807364
886.000000	0.797603
885.000000	0.796134
884.000000	0.801400
883.000000	0.797629
882.000000	0.807500
881.000000	0.807203
880.000000	0.799236
879.000000	0.802625
878.000000	0.801163
877.000000	0.796419
876.000000	0.790732
875.000000	0.818968
874.000000	0.818493
873.000000	0.800665
872.000000	0.802960
871.000000	0.833268
870.000000	0.822756
869.000000	0.811386
868.000000	0.790728
867.000000	0.779331
866.000000	0.779153
865.000000	0.783132
864.000000	0.822098
863.000000	0.827785
862.000000	0.809049
861.000000	0.814223
860.000000	0.818409
859.000000	0.834586
858.000000	0.839252
857.000000	0.830386
856.000000	0.832033
855.000000	0.821146
854.000000	0.822630
853.000000	0.829238
852.000000	0.829259
851.000000	0.827903
850.000000	0.823945
849.000000	0.823387
848.000000	0.822795
847.000000	0.821707
846.000000	0.822566
845.000000	0.820556
844.000000	0.822104
843.000000	0.822310
842.000000	0.820678
841.000000	0.823759
840.000000	0.818784
839.000000	0.817698
838.000000	0.817227
837.000000	0.819031
836.000000	0.819792
835.000000	0.816790
834.000000	0.817756
833.000000	0.816683
832.000000	0.817098
831.000000	0.814259
830.000000	0.814330
829.000000	0.813331
828.000000	0.814797
827.000000	0.812086
826.000000	0.813345
825.000000	0.812990
824.000000	0.814381
823.000000	0.813693
822.000000	0.813849
821.000000	0.813227
820.000000	0.811331
819.000000	0.811446
818.000000	0.810867
817.000000	0.808997
816.000000	0.809813
815.000000	0.808631
814.000000	0.806575
813.000000	0.806490
812.000000	0.807579
811.000000	0.809541
810.000000	0.805562
809.000000	0.804604
808.000000	0.804579
807.000000	0.805367
806.000000	0.805654
805.000000	0.804528
804.000000	0.804569
803.000000	0.803646
802.000000	0.804255
801.000000	0.802743
800.000000	0.802691
799.000000	0.803263
798.000000	0.801745
797.000000	0.803039
796.000000	0.801711
795.000000	0.800936
794.000000	0.799911
793.000000	0.797857
792.000000	0.798700
791.000000	0.799283
790.000000	0.798109
789.000000	0.799340
788.000000	0.798410
787.000000	0.796921
786.000000	0.796011
785.000000	0.797777
784.000000	0.798739
783.000000	0.796340
782.000000	0.794794
781.000000	0.795645
780.000000	0.795202
779.000000	0.795131
778.000000	0.793767
777.000000	0.793663
776.000000	0.793111
775.000000	0.793028
774.000000	0.792040
773.000000	0.791368
772.000000	0.791396
771.000000	0.790679
770.000000	0.791172
769.000000	0.791748
768.000000	0.789031
767.000000	0.789379
766.000000	0.787872
765.000000	0.788849
764.000000	0.788589
763.000000	0.788037
762.000000	0.788149
761.000000	0.787096
760.000000	0.786553
759.000000	0.786285
758.000000	0.786569
757.000000	0.785704
756.000000	0.785182
755.000000	0.783411
754.000000	0.783879
753.000000	0.783235
752.000000	0.783622
751.000000	0.783604
750.000000	0.783445
749.000000	0.783383
748.000000	0.782516
747.000000	0.780055
746.000000	0.779747
745.000000	0.779033
744.000000	0.780026
743.000000	0.779891
742.000000	0.778422
741.000000	0.778014
740.000000	0.778323
739.000000	0.776555
738.000000	0.777681
737.000000	0.775863
736.000000	0.776123
735.000000	0.774919
734.000000	0.775635
733.000000	0.775673
732.000000	0.774264
731.000000	0.774162
730.000000	0.773567
729.000000	0.772685
728.000000	0.771618
727.000000	0.771560
726.000000	0.771490
725.000000	0.770492
724.000000	0.770393
723.000000	0.770053
722.000000	0.769100
721.000000	0.769011
720.000000	0.768601
719.000000	0.768596
718.000000	0.768111
717.000000	0.767564
716.000000	0.766321
715.000000	0.766041
714.000000	0.766149
713.000000	0.765136
712.000000	0.764488
711.000000	0.764046
710.000000	0.762650
709.000000	0.763089
708.000000	0.763285
707.000000	0.762330
706.000000	0.761808
705.000000	0.761336
704.000000	0.761104
703.000000	0.760642
702.000000	0.759859
701.000000	0.759219
700.000000	0.758327
699.000000	0.758057
698.000000	0.757877
697.000000	0.757345
696.000000	0.756601
695.000000	0.756413
694.000000	0.756167
693.000000	0.755476
692.000000	0.755035
691.000000	0.754662
690.000000	0.753815
689.000000	0.753576
688.000000	0.753156
687.000000	0.752455
686.000000	0.752177
685.000000	0.751797
684.000000	0.751367
683.000000	0.751053
682.000000	0.750094
681.000000	0.749498
680.000000	0.749156
679.000000	0.748564
678.000000	0.747725
677.000000	0.747440
676.000000	0.747497
675.000000	0.746622
674.000000	0.745729
673.000000	0.745695
672.000000	0.745024
671.000000	0.744568
670.000000	0.744137
669.000000	0.743196
668.000000	0.742443
667.000000	0.741856
666.000000	0.741914
665.000000	0.741434
664.000000	0.740043
663.000000	0.739813
662.000000	0.739806
661.000000	0.739658
660.000000	0.739495
659.000000	0.738648
658.000000	0.737651
657.000000	0.736808
656.000000	0.736320
655.000000	0.735847
654.000000	0.735255
653.000000	0.734736
652.000000	0.734315
651.000000	0.733817
650.000000	0.733467
649.000000	0.733182
648.000000	0.732626
647.000000	0.731481
646.000000	0.730570
645.000000	0.730400
644.000000	0.730079
643.000000	0.729686
642.000000	0.729472
641.000000	0.728601
640.000000	0.727838
639.000000	0.727553
638.000000	0.726874
637.000000	0.726156
636.000000	0.725662
635.000000	0.725334
634.000000	0.724802
633.000000	0.724571
632.000000	0.724118
631.000000	0.723310
630.000000	0.722543
629.000000	0.722237
628.000000	0.722129
627.000000	0.721566
626.000000	0.720701
625.000000	0.719909
624.000000	0.719429
623.000000	0.718277
622.000000	0.717798
621.000000	0.717702
620.000000	0.716883
619.000000	0.716418
618.000000	0.716088
617.000000	0.715348
616.000000	0.714839
615.000000	0.714586
614.000000	0.713996
613.000000	0.713554
612.000000	0.712860
611.000000	0.712266
610.000000	0.711784
609.000000	0.710959
608.000000	0.710397
607.000000	0.709987
606.000000	0.710249
605.000000	0.709858
604.000000	0.708982
603.000000	0.708334
602.000000	0.708260
601.000000	0.708005
600.000000	0.707794
599.000000	0.707396
598.000000	0.706794
597.000000	0.707650
596.000000	0.707632
595.000000	0.707600
594.000000	0.707981
593.000000	0.708262
592.000000	0.708656
591.000000	0.709129
590.000000	0.709973
589.000000	0.711021
588.000000	0.711701
587.000000	0.713042
586.000000	0.714282
585.000000	0.715534
584.000000	0.716993
583.000000	0.718760
582.000000	0.719494
581.000000	0.720782
580.000000	0.721613
579.000000	0.722500
578.000000	0.723463
577.000000	0.723754
576.000000	0.724039
575.000000	0.724461
574.000000	0.725318
573.000000	0.725139
572.000000	0.724878
571.000000	0.724850
570.000000	0.724087
569.000000	0.723594
568.000000	0.723137
567.000000	0.722488
566.000000	0.721582
565.000000	0.721580
564.000000	0.721364
563.000000	0.720405
562.000000	0.720396
561.000000	0.719596
560.000000	0.719314
559.000000	0.718380
558.000000	0.717858
557.000000	0.716555
556.000000	0.716290
555.000000	0.715387
554.000000	0.714671
553.000000	0.713958
552.000000	0.712985
551.000000	0.712336
550.000000	0.711497
549.000000	0.710795
548.000000	0.709762
547.000000	0.709088
546.000000	0.708344
545.000000	0.707775
544.000000	0.707061
543.000000	0.705561
542.000000	0.704841
541.000000	0.703812
540.000000	0.703471
539.000000	0.702793
538.000000	0.701473
537.000000	0.701389
536.000000	0.701222
535.000000	0.700139
534.000000	0.699836
533.000000	0.699056
532.000000	0.698196
531.000000	0.697422
530.000000	0.697241
529.000000	0.696356
528.000000	0.695757
527.000000	0.695749
526.000000	0.694855
525.000000	0.693930
524.000000	0.693324
523.000000	0.692744
522.000000	0.691699
521.000000	0.691091
520.000000	0.690292
519.000000	0.689754
518.000000	0.688675
517.000000	0.688065
516.000000	0.686458
515.000000	0.685761
514.000000	0.684732
513.000000	0.683760
512.000000	0.682347
511.000000	0.681656
510.000000	0.680945
509.000000	0.679429
508.000000	0.679274
507.000000	0.678214
506.000000	0.678482
505.000000	0.677754
504.000000	0.676805
503.000000	0.678271
502.000000	0.678346
501.000000	0.679208
500.000000	0.680123
499.000000	0.681086
498.000000	0.682125
497.000000	0.684413
496.000000	0.685767
495.000000	0.687386
494.000000	0.689822
493.000000	0.692710
492.000000	0.694680
491.000000	0.696917
490.000000	0.698027
489.000000	0.699886
488.000000	0.701654
487.000000	0.703355
486.000000	0.704866
485.000000	0.705030
484.000000	0.706233
483.000000	0.707319
482.000000	0.707401
481.000000	0.707518
480.000000	0.707729
479.000000	0.707283
478.000000	0.706596
477.000000	0.706262
476.000000	0.705945
475.000000	0.704569
474.000000	0.703943
473.000000	0.703209
472.000000	0.702304
471.000000	0.700954
470.000000	0.699309
469.000000	0.698733
468.000000	0.697570
467.000000	0.695866
466.000000	0.694735
465.000000	0.694072
464.000000	0.692175
463.000000	0.691494
462.000000	0.690164
461.000000	0.689329
460.000000	0.687958
459.000000	0.687056
458.000000	0.686077
457.000000	0.685372
456.000000	0.684415
455.000000	0.683788
454.000000	0.683485
453.000000	0.682231
452.000000	0.681869
451.000000	0.680932
450.000000	0.680300
449.000000	0.679386
448.000000	0.678758
447.000000	0.677536
446.000000	0.676786
445.000000	0.675652
444.000000	0.674650
443.000000	0.674382
442.000000	0.673317
441.000000	0.672448
440.000000	0.671351
439.000000	0.670790
438.000000	0.669313
437.000000	0.667826
436.000000	0.666590
435.000000	0.665380
434.000000	0.664996
433.000000	0.662701
432.000000	0.661419
431.000000	0.660489
430.000000	0.659055
429.000000	0.658060
428.000000	0.657170
427.000000	0.655724
426.000000	0.654567
425.000000	0.653346
424.000000	0.652766
423.000000	0.651195
422.000000	0.650630
421.000000	0.649704
420.000000	0.647857
419.000000	0.646911
418.000000	0.646007
417.000000	0.644725
416.000000	0.643517
415.000000	0.642649
414.000000	0.641379
413.000000	0.640343
412.000000	0.640193
411.000000	0.639496
410.000000	0.639160
409.000000	0.639142
408.000000	0.639405
407.000000	0.640392
406.000000	0.641996
405.000000	0.644302
404.000000	0.647267
403.000000	0.651149
402.000000	0.655790
401.000000	0.660997
400.000000	0.668543
399.000000	0.676351
398.000000	0.685274
397.000000	0.695763
396.000000	0.706998
395.000000	0.720219
394.000000	0.734132
393.000000	0.748986
392.000000	0.765675
391.000000	0.782944
390.000000	0.798741
389.000000	0.816092
388.000000	0.834073
387.000000	0.850442
386.000000	0.866617
385.000000	0.882446
384.000000	0.898866
383.000000	0.913746
382.000000	0.927520
381.000000	0.941351
380.000000	0.954860
379.000000	0.968153
378.000000	0.981971
377.000000	0.994580
376.000000	1.007908
375.000000	1.019134
374.000000	1.028132
373.000000	1.037102
372.000000	1.045302
371.000000	1.056417
370.000000	1.066763
369.000000	1.074437
368.000000	1.084391
367.000000	1.091673
366.000000	1.098533
365.000000	1.106044
364.000000	1.113583
363.000000	1.121772
362.000000	1.128690
361.000000	1.136610
360.000000	1.142320
359.000000	1.148896
358.000000	1.153496
357.000000	1.159174
356.000000	1.164011
355.000000	1.170445
354.000000	1.175460
353.000000	1.180408
352.000000	1.185727
351.000000	1.190016
350.000000	1.193464
349.000000	1.197330
348.000000	1.200735
347.000000	1.203249
346.000000	1.204384
345.000000	1.205469
344.000000	1.203690
343.000000	1.208712
342.000000	1.212090
341.000000	1.214215
340.000000	1.213508
339.000000	1.211519
338.000000	1.213249
337.000000	1.213171
336.000000	1.211979
335.000000	1.211340
334.000000	1.210268
333.000000	1.208584
332.000000	1.208775
331.000000	1.207171
330.000000	1.203247
329.000000	1.198941
328.000000	1.198112
327.000000	1.199325
326.000000	1.195158
325.000000	1.194635
324.000000	1.197907
323.000000	1.194411
322.000000	1.189649
321.000000	1.187015
320.000000	1.188885
319.000000	1.192250
318.000000	1.192901
317.000000	1.192129
316.000000	1.191401
315.000000	1.188441
314.000000	1.187317
313.000000	1.184741
312.000000	1.185811
311.000000	1.184799
310.000000	1.181312
309.000000	1.183032
308.000000	1.179773
307.000000	1.180756
306.000000	1.181642
305.000000	1.181420
304.000000	1.180559
303.000000	1.179611
302.000000	1.177332
301.000000	1.177874
300.000000	1.179686
299.000000	1.180280
298.000000	1.181763
297.000000	1.182339
296.000000	1.180977
295.000000	1.182439
294.000000	1.184424
293.000000	1.181833
292.000000	1.184432
291.000000	1.182513
290.000000	1.181914
289.000000	1.183698
288.000000	1.185413
287.000000	1.186248
286.000000	1.184732
285.000000	1.185197
284.000000	1.181471
283.000000	1.180567
282.000000	1.185285
281.000000	1.183307
280.000000	1.181656
279.000000	1.180950
278.000000	1.179447
277.000000	1.179489
276.000000	1.174932
275.000000	1.177573
274.000000	1.177091
273.000000	1.175111
272.000000	1.176821
271.000000	1.174351
270.000000	1.174011
269.000000	1.173262
268.000000	1.174443
267.000000	1.170952
266.000000	1.170020
265.000000	1.172974
264.000000	1.171860
263.000000	1.170526
262.000000	1.169397
261.000000	1.168920
260.000000	1.167635
259.000000	1.165899
258.000000	1.167948
257.000000	1.167413
256.000000	1.168089
255.000000	1.164283
254.000000	1.166336
253.000000	1.165454
252.000000	1.165016
251.000000	1.164178
250.000000	1.160213
249.000000	1.161984
248.000000	1.162091
247.000000	1.161942
246.000000	1.160724
245.000000	1.159161
244.000000	1.158208
243.000000	1.156555
242.000000	1.158495
241.000000	1.157454
240.000000	1.155269
239.000000	1.153596
238.000000	1.150897
237.000000	1.150603
236.000000	1.151281
235.000000	1.148729
234.000000	1.146754
233.000000	1.147574
232.000000	1.145746
231.000000	1.143883
230.000000	1.143443
229.000000	1.141692
228.000000	1.139899
227.000000	1.138904
226.000000	1.137824
225.000000	1.135407
224.000000	1.132655
223.000000	1.131698
222.000000	1.129840
221.000000	1.129760
220.000000	1.128462
219.000000	1.126337
218.000000	1.126217
217.000000	1.122544
216.000000	1.119173
215.000000	1.117285
214.000000	1.116684
213.000000	1.114960
212.000000	1.110694
211.000000	1.113568
210.000000	1.108995
209.000000	1.104766
208.000000	1.101991
207.000000	1.098829
206.000000	1.094387
205.000000	1.094125
204.000000	1.091307
203.000000	1.089730
202.000000	1.083396
201.000000	1.078640
200.000000	1.073482
199.000000	1.066207
198.000000	1.064438
197.000000	1.060200
196.000000	1.052435
195.000000	1.040347
194.000000	1.030236
193.000000	1.024629
192.000000	1.001939
191.000000	0.967138
190.000000	0.885387
189.000000	0.749709
188.000000	0.555348
187.000000	0.235291
186.000000	0.037334
185.000000	0.006867
184.000000	0.000150
183.000000	-0.019011
182.000000	-0.007125
181.000000	-0.007176
180.000000	-0.017438
179.000000	-0.017096
178.000000	-0.010746
177.000000	-0.016833
176.000000	-0.023776
175.000000	-0.016222
