PE UV       SUBTECH     SPECTRUM    ASCII       PEDS        4.00        
   -1
Sample8.Sample.Raw.asc
25/05/30
12:39:51.00
25/05/30
12:39:51.00
tom jordan
JJC R3
175.000000
1
Lambda 1050
1050L1807051
PerkinElmer UV WinLab 6.4.0.973 / 2.02.06 Lambda 900 UV/VIS/NIR, Jan 28 2016 16:58:34

0
0
3350/servo 860.8/2
0
0
UV/VIS
1
1
1
RBeamAtt,SBeamAtt,150mm sphere / downward view, WB InGaAs Detector
0
0
0
0
Program
Program
3350/servo 860.8/2
3350/0.2 860.8/0.2
3350/0.2 860.8/0.2
0
1.00
 
 
 
0
 
860.8
319.2
860.8
Front
100
 
S:100 R:100
 
0
0
0
 
0
 
 
 
0
 
 
0
0
0
0
0
 
 
 
 
0
0


0
0
#HDR
-1
-1
#GR
nm
A
1.0
0.0
2000.000000
-1.000000
1826
8
1.210632
-0.011678
#DATA
2000.000000	0.974407
1999.000000	0.977236
1998.000000	0.987658
1997.000000	0.985328
1996.000000	0.981588
1995.000000	0.978796
1994.000000	0.975363
1993.000000	0.973846
1992.000000	0.988093
1991.000000	0.983152
1990.000000	0.986366
1989.000000	0.992442
1988.000000	0.997217
1987.000000	0.983912
1986.000000	0.987145
1985.000000	0.990675
1984.000000	0.984320
1983.000000	0.988183
1982.000000	0.993298
1981.000000	0.995170
1980.000000	0.981148
1979.000000	0.986527
1978.000000	0.980118
1977.000000	0.987819
1976.000000	0.974919
1975.000000	0.991113
1974.000000	0.981984
1973.000000	0.983618
1972.000000	0.983809
1971.000000	0.981640
1970.000000	0.988916
1969.000000	0.985263
1968.000000	0.989022
1967.000000	0.984332
1966.000000	0.980628
1965.000000	0.978173
1964.000000	0.983692
1963.000000	0.984710
1962.000000	0.980503
1961.000000	0.982349
1960.000000	0.986325
1959.000000	0.993423
1958.000000	0.981457
1957.000000	0.992222
1956.000000	0.981138
1955.000000	0.982726
1954.000000	0.988068
1953.000000	0.982257
1952.000000	0.975233
1951.000000	0.981642
1950.000000	0.988511
1949.000000	0.982309
1948.000000	0.978168
1947.000000	0.973960
1946.000000	0.991922
1945.000000	0.990749
1944.000000	0.992474
1943.000000	0.982759
1942.000000	0.981018
1941.000000	0.987038
1940.000000	0.988225
1939.000000	0.985301
1938.000000	0.985552
1937.000000	0.987439
1936.000000	0.982128
1935.000000	0.978354
1934.000000	0.995027
1933.000000	1.002695
1932.000000	0.990417
1931.000000	0.980536
1930.000000	0.969903
1929.000000	0.970436
1928.000000	0.976551
1927.000000	0.971791
1926.000000	0.984450
1925.000000	0.968980
1924.000000	0.977308
1923.000000	0.984078
1922.000000	1.000768
1921.000000	0.985317
1920.000000	0.971201
1919.000000	0.982376
1918.000000	0.991199
1917.000000	0.993220
1916.000000	0.994314
1915.000000	0.984415
1914.000000	0.961331
1913.000000	0.971235
1912.000000	0.976062
1911.000000	0.973475
1910.000000	0.962594
1909.000000	0.970657
1908.000000	0.978489
1907.000000	0.984516
1906.000000	0.989565
1905.000000	0.985004
1904.000000	0.988867
1903.000000	0.978739
1902.000000	0.976292
1901.000000	0.971159
1900.000000	0.966852
1899.000000	0.974803
1898.000000	0.977873
1897.000000	0.969918
1896.000000	0.965661
1895.000000	0.971768
1894.000000	0.984173
1893.000000	0.989895
1892.000000	0.990306
1891.000000	0.988384
1890.000000	0.981089
1889.000000	0.974277
1888.000000	0.974186
1887.000000	0.975490
1886.000000	0.967838
1885.000000	0.970626
1884.000000	0.979341
1883.000000	0.980758
1882.000000	0.973535
1881.000000	0.965061
1880.000000	0.971938
1879.000000	0.977416
1878.000000	0.974566
1877.000000	0.972634
1876.000000	0.977346
1875.000000	0.981881
1874.000000	0.980960
1873.000000	0.971635
1872.000000	0.970784
1871.000000	0.974989
1870.000000	0.974816
1869.000000	0.973192
1868.000000	0.980721
1867.000000	0.988240
1866.000000	0.977793
1865.000000	0.976040
1864.000000	0.974278
1863.000000	0.980301
1862.000000	0.978018
1861.000000	0.973536
1860.000000	0.978559
1859.000000	0.982276
1858.000000	0.976834
1857.000000	0.978824
1856.000000	0.980843
1855.000000	0.977449
1854.000000	0.984090
1853.000000	0.981447
1852.000000	0.982058
1851.000000	0.981163
1850.000000	0.982228
1849.000000	0.983543
1848.000000	0.978772
1847.000000	0.978461
1846.000000	0.982101
1845.000000	0.987458
1844.000000	0.981129
1843.000000	0.981045
1842.000000	0.981936
1841.000000	0.978946
1840.000000	0.971596
1839.000000	0.978048
1838.000000	0.986899
1837.000000	0.982076
1836.000000	0.978684
1835.000000	0.980874
1834.000000	0.977716
1833.000000	0.976353
1832.000000	0.983835
1831.000000	0.984870
1830.000000	0.984555
1829.000000	0.984641
1828.000000	0.987804
1827.000000	0.982732
1826.000000	0.986892
1825.000000	0.985305
1824.000000	0.985182
1823.000000	0.981636
1822.000000	0.981465
1821.000000	0.982457
1820.000000	0.983008
1819.000000	0.980565
1818.000000	0.978565
1817.000000	0.982895
1816.000000	0.984565
1815.000000	0.988242
1814.000000	0.985550
1813.000000	0.988506
1812.000000	0.980035
1811.000000	0.977670
1810.000000	0.978055
1809.000000	0.979621
1808.000000	0.976988
1807.000000	0.979524
1806.000000	0.981120
1805.000000	0.980890
1804.000000	0.981341
1803.000000	0.981115
1802.000000	0.985017
1801.000000	0.980007
1800.000000	0.987553
1799.000000	0.983340
1798.000000	0.985554
1797.000000	0.978840
1796.000000	0.981717
1795.000000	0.978391
1794.000000	0.977335
1793.000000	0.979385
1792.000000	0.984032
1791.000000	0.976094
1790.000000	0.977860
1789.000000	0.976653
1788.000000	0.976172
1787.000000	0.984018
1786.000000	0.977151
1785.000000	0.977995
1784.000000	0.978399
1783.000000	0.978251
1782.000000	0.977849
1781.000000	0.978379
1780.000000	0.978654
1779.000000	0.983879
1778.000000	0.980179
1777.000000	0.973476
1776.000000	0.975144
1775.000000	0.971633
1774.000000	0.979365
1773.000000	0.973035
1772.000000	0.974911
1771.000000	0.970936
1770.000000	0.984580
1769.000000	0.981171
1768.000000	0.976931
1767.000000	0.971770
1766.000000	0.975943
1765.000000	0.984937
1764.000000	0.977840
1763.000000	0.972930
1762.000000	0.976030
1761.000000	0.981303
1760.000000	0.976285
1759.000000	0.970525
1758.000000	0.972958
1757.000000	0.974289
1756.000000	0.975942
1755.000000	0.978751
1754.000000	0.971342
1753.000000	0.980738
1752.000000	0.969206
1751.000000	0.972685
1750.000000	0.976007
1749.000000	0.969030
1748.000000	0.973737
1747.000000	0.970843
1746.000000	0.970920
1745.000000	0.969314
1744.000000	0.975215
1743.000000	0.972294
1742.000000	0.975966
1741.000000	0.975499
1740.000000	0.978175
1739.000000	0.979500
1738.000000	0.966894
1737.000000	0.971767
1736.000000	0.970402
1735.000000	0.973940
1734.000000	0.975495
1733.000000	0.980879
1732.000000	0.972666
1731.000000	0.971473
1730.000000	0.966262
1729.000000	0.973465
1728.000000	0.971117
1727.000000	0.970419
1726.000000	0.965737
1725.000000	0.970010
1724.000000	0.971892
1723.000000	0.970298
1722.000000	0.974583
1721.000000	0.969669
1720.000000	0.976322
1719.000000	0.972644
1718.000000	0.973600
1717.000000	0.969943
1716.000000	0.972167
1715.000000	0.965718
1714.000000	0.966271
1713.000000	0.970763
1712.000000	0.969353
1711.000000	0.970950
1710.000000	0.970080
1709.000000	0.971987
1708.000000	0.971770
1707.000000	0.971184
1706.000000	0.966757
1705.000000	0.968664
1704.000000	0.970837
1703.000000	0.972082
1702.000000	0.971001
1701.000000	0.970557
1700.000000	0.970081
1699.000000	0.968677
1698.000000	0.963565
1697.000000	0.963677
1696.000000	0.967407
1695.000000	0.965069
1694.000000	0.967878
1693.000000	0.970518
1692.000000	0.971302
1691.000000	0.966004
1690.000000	0.972133
1689.000000	0.972276
1688.000000	0.967744
1687.000000	0.966567
1686.000000	0.965613
1685.000000	0.965654
1684.000000	0.969912
1683.000000	0.970885
1682.000000	0.966560
1681.000000	0.966364
1680.000000	0.967735
1679.000000	0.967321
1678.000000	0.965482
1677.000000	0.968030
1676.000000	0.968080
1675.000000	0.967640
1674.000000	0.968245
1673.000000	0.966762
1672.000000	0.965886
1671.000000	0.967701
1670.000000	0.969758
1669.000000	0.968642
1668.000000	0.967722
1667.000000	0.966989
1666.000000	0.967881
1665.000000	0.967110
1664.000000	0.967328
1663.000000	0.967411
1662.000000	0.965202
1661.000000	0.961519
1660.000000	0.964805
1659.000000	0.964193
1658.000000	0.963817
1657.000000	0.965002
1656.000000	0.962305
1655.000000	0.962392
1654.000000	0.964551
1653.000000	0.963158
1652.000000	0.963039
1651.000000	0.964400
1650.000000	0.963585
1649.000000	0.964071
1648.000000	0.966110
1647.000000	0.967050
1646.000000	0.965643
1645.000000	0.966500
1644.000000	0.967192
1643.000000	0.963922
1642.000000	0.962884
1641.000000	0.962440
1640.000000	0.961526
1639.000000	0.962934
1638.000000	0.963494
1637.000000	0.961964
1636.000000	0.962300
1635.000000	0.961097
1634.000000	0.962408
1633.000000	0.963028
1632.000000	0.961984
1631.000000	0.962519
1630.000000	0.962805
1629.000000	0.961763
1628.000000	0.961910
1627.000000	0.962725
1626.000000	0.962760
1625.000000	0.962024
1624.000000	0.961652
1623.000000	0.962023
1622.000000	0.959280
1621.000000	0.958735
1620.000000	0.961229
1619.000000	0.963114
1618.000000	0.962855
1617.000000	0.959544
1616.000000	0.960831
1615.000000	0.961552
1614.000000	0.961169
1613.000000	0.961398
1612.000000	0.959221
1611.000000	0.959774
1610.000000	0.961434
1609.000000	0.959145
1608.000000	0.959759
1607.000000	0.958519
1606.000000	0.959219
1605.000000	0.960101
1604.000000	0.957726
1603.000000	0.956538
1602.000000	0.958630
1601.000000	0.959592
1600.000000	0.957550
1599.000000	0.957687
1598.000000	0.957264
1597.000000	0.958555
1596.000000	0.957393
1595.000000	0.959405
1594.000000	0.958421
1593.000000	0.957336
1592.000000	0.959293
1591.000000	0.957570
1590.000000	0.958636
1589.000000	0.956138
1588.000000	0.957031
1587.000000	0.956399
1586.000000	0.957165
1585.000000	0.954861
1584.000000	0.954668
1583.000000	0.954619
1582.000000	0.952657
1581.000000	0.955294
1580.000000	0.955320
1579.000000	0.955933
1578.000000	0.956966
1577.000000	0.954311
1576.000000	0.954245
1575.000000	0.955638
1574.000000	0.958105
1573.000000	0.956083
1572.000000	0.954791
1571.000000	0.953423
1570.000000	0.956602
1569.000000	0.954038
1568.000000	0.948834
1567.000000	0.947783
1566.000000	0.953966
1565.000000	0.954133
1564.000000	0.955808
1563.000000	0.952931
1562.000000	0.952187
1561.000000	0.953416
1560.000000	0.950914
1559.000000	0.952622
1558.000000	0.953655
1557.000000	0.951991
1556.000000	0.949197
1555.000000	0.952432
1554.000000	0.949868
1553.000000	0.952639
1552.000000	0.951778
1551.000000	0.955720
1550.000000	0.952299
1549.000000	0.948919
1548.000000	0.950053
1547.000000	0.950072
1546.000000	0.951589
1545.000000	0.946988
1544.000000	0.949241
1543.000000	0.949020
1542.000000	0.952123
1541.000000	0.954854
1540.000000	0.948057
1539.000000	0.952697
1538.000000	0.949621
1537.000000	0.948430
1536.000000	0.946913
1535.000000	0.947870
1534.000000	0.949032
1533.000000	0.950590
1532.000000	0.951475
1531.000000	0.945672
1530.000000	0.948532
1529.000000	0.945302
1528.000000	0.947542
1527.000000	0.949767
1526.000000	0.948630
1525.000000	0.943466
1524.000000	0.942529
1523.000000	0.948718
1522.000000	0.945864
1521.000000	0.947020
1520.000000	0.944847
1519.000000	0.944409
1518.000000	0.945928
1517.000000	0.947696
1516.000000	0.946457
1515.000000	0.945180
1514.000000	0.945222
1513.000000	0.941447
1512.000000	0.946441
1511.000000	0.946160
1510.000000	0.946861
1509.000000	0.945781
1508.000000	0.945319
1507.000000	0.945716
1506.000000	0.941995
1505.000000	0.941820
1504.000000	0.942647
1503.000000	0.941579
1502.000000	0.939514
1501.000000	0.943764
1500.000000	0.943418
1499.000000	0.942422
1498.000000	0.942904
1497.000000	0.940135
1496.000000	0.943406
1495.000000	0.942687
1494.000000	0.941970
1493.000000	0.939955
1492.000000	0.940874
1491.000000	0.944171
1490.000000	0.943571
1489.000000	0.943078
1488.000000	0.940474
1487.000000	0.940586
1486.000000	0.942929
1485.000000	0.941524
1484.000000	0.939365
1483.000000	0.938172
1482.000000	0.941478
1481.000000	0.940330
1480.000000	0.940588
1479.000000	0.939174
1478.000000	0.939938
1477.000000	0.940750
1476.000000	0.939921
1475.000000	0.935856
1474.000000	0.936265
1473.000000	0.940794
1472.000000	0.941091
1471.000000	0.939967
1470.000000	0.935578
1469.000000	0.934584
1468.000000	0.937388
1467.000000	0.938475
1466.000000	0.935929
1465.000000	0.932578
1464.000000	0.934930
1463.000000	0.937047
1462.000000	0.939400
1461.000000	0.937490
1460.000000	0.934905
1459.000000	0.935501
1458.000000	0.934264
1457.000000	0.935431
1456.000000	0.935311
1455.000000	0.934215
1454.000000	0.932554
1453.000000	0.934024
1452.000000	0.935579
1451.000000	0.936133
1450.000000	0.936349
1449.000000	0.935234
1448.000000	0.935146
1447.000000	0.932779
1446.000000	0.931843
1445.000000	0.933107
1444.000000	0.933066
1443.000000	0.933374
1442.000000	0.934662
1441.000000	0.933012
1440.000000	0.930378
1439.000000	0.930824
1438.000000	0.932544
1437.000000	0.932991
1436.000000	0.932817
1435.000000	0.931132
1434.000000	0.931061
1433.000000	0.930036
1432.000000	0.930918
1431.000000	0.931247
1430.000000	0.930137
1429.000000	0.929952
1428.000000	0.929422
1427.000000	0.928728
1426.000000	0.930124
1425.000000	0.930902
1424.000000	0.928818
1423.000000	0.927465
1422.000000	0.928419
1421.000000	0.930118
1420.000000	0.928666
1419.000000	0.927774
1418.000000	0.928284
1417.000000	0.927250
1416.000000	0.927904
1415.000000	0.927392
1414.000000	0.927433
1413.000000	0.926592
1412.000000	0.926291
1411.000000	0.926145
1410.000000	0.926224
1409.000000	0.927321
1408.000000	0.926382
1407.000000	0.925285
1406.000000	0.925922
1405.000000	0.928462
1404.000000	0.927005
1403.000000	0.925216
1402.000000	0.927083
1401.000000	0.926004
1400.000000	0.927091
1399.000000	0.926886
1398.000000	0.926128
1397.000000	0.926365
1396.000000	0.927242
1395.000000	0.926411
1394.000000	0.923596
1393.000000	0.923078
1392.000000	0.923032
1391.000000	0.922755
1390.000000	0.922262
1389.000000	0.923105
1388.000000	0.923531
1387.000000	0.923118
1386.000000	0.923927
1385.000000	0.923185
1384.000000	0.923131
1383.000000	0.923514
1382.000000	0.924892
1381.000000	0.923584
1380.000000	0.921980
1379.000000	0.922346
1378.000000	0.921245
1377.000000	0.921690
1376.000000	0.921567
1375.000000	0.922535
1374.000000	0.921552
1373.000000	0.919960
1372.000000	0.920315
1371.000000	0.921347
1370.000000	0.920533
1369.000000	0.919818
1368.000000	0.919109
1367.000000	0.919164
1366.000000	0.919405
1365.000000	0.918732
1364.000000	0.919028
1363.000000	0.918490
1362.000000	0.918362
1361.000000	0.919896
1360.000000	0.917044
1359.000000	0.916226
1358.000000	0.915116
1357.000000	0.916127
1356.000000	0.918349
1355.000000	0.916967
1354.000000	0.916000
1353.000000	0.915758
1352.000000	0.914864
1351.000000	0.915024
1350.000000	0.914341
1349.000000	0.916723
1348.000000	0.916619
1347.000000	0.919351
1346.000000	0.917895
1345.000000	0.917575
1344.000000	0.916747
1343.000000	0.916754
1342.000000	0.915969
1341.000000	0.915582
1340.000000	0.914773
1339.000000	0.913210
1338.000000	0.914305
1337.000000	0.915438
1336.000000	0.915401
1335.000000	0.915285
1334.000000	0.915319
1333.000000	0.915581
1332.000000	0.915558
1331.000000	0.914368
1330.000000	0.913142
1329.000000	0.912430
1328.000000	0.913956
1327.000000	0.914419
1326.000000	0.913141
1325.000000	0.912898
1324.000000	0.912552
1323.000000	0.913727
1322.000000	0.911747
1321.000000	0.910974
1320.000000	0.911062
1319.000000	0.910552
1318.000000	0.910968
1317.000000	0.912772
1316.000000	0.910155
1315.000000	0.910918
1314.000000	0.908813
1313.000000	0.909002
1312.000000	0.910395
1311.000000	0.909881
1310.000000	0.910709
1309.000000	0.910274
1308.000000	0.910119
1307.000000	0.910330
1306.000000	0.910519
1305.000000	0.908970
1304.000000	0.908439
1303.000000	0.907708
1302.000000	0.906962
1301.000000	0.907136
1300.000000	0.908197
1299.000000	0.907517
1298.000000	0.907448
1297.000000	0.907393
1296.000000	0.905138
1295.000000	0.906819
1294.000000	0.908202
1293.000000	0.906068
1292.000000	0.906454
1291.000000	0.904699
1290.000000	0.904706
1289.000000	0.903896
1288.000000	0.904993
1287.000000	0.906142
1286.000000	0.905668
1285.000000	0.904977
1284.000000	0.903443
1283.000000	0.904109
1282.000000	0.903720
1281.000000	0.902416
1280.000000	0.903413
1279.000000	0.902975
1278.000000	0.903577
1277.000000	0.901103
1276.000000	0.900912
1275.000000	0.902053
1274.000000	0.900917
1273.000000	0.901343
1272.000000	0.901918
1271.000000	0.900837
1270.000000	0.900515
1269.000000	0.900120
1268.000000	0.899194
1267.000000	0.899533
1266.000000	0.900714
1265.000000	0.899860
1264.000000	0.899410
1263.000000	0.898837
1262.000000	0.900189
1261.000000	0.898610
1260.000000	0.898233
1259.000000	0.899771
1258.000000	0.899200
1257.000000	0.898861
1256.000000	0.897671
1255.000000	0.897303
1254.000000	0.895892
1253.000000	0.896640
1252.000000	0.896971
1251.000000	0.895272
1250.000000	0.895694
1249.000000	0.895290
1248.000000	0.896124
1247.000000	0.893511
1246.000000	0.894493
1245.000000	0.893701
1244.000000	0.893804
1243.000000	0.895380
1242.000000	0.893633
1241.000000	0.893522
1240.000000	0.893284
1239.000000	0.893560
1238.000000	0.894820
1237.000000	0.894913
1236.000000	0.894030
1235.000000	0.893382
1234.000000	0.893132
1233.000000	0.893173
1232.000000	0.893247
1231.000000	0.892984
1230.000000	0.892592
1229.000000	0.890549
1228.000000	0.890231
1227.000000	0.890708
1226.000000	0.890440
1225.000000	0.890416
1224.000000	0.890209
1223.000000	0.891006
1222.000000	0.892064
1221.000000	0.891021
1220.000000	0.889045
1219.000000	0.888972
1218.000000	0.888888
1217.000000	0.889007
1216.000000	0.887220
1215.000000	0.887620
1214.000000	0.887736
1213.000000	0.886776
1212.000000	0.887271
1211.000000	0.887204
1210.000000	0.886636
1209.000000	0.885776
1208.000000	0.886842
1207.000000	0.886923
1206.000000	0.887312
1205.000000	0.886800
1204.000000	0.886701
1203.000000	0.886414
1202.000000	0.885602
1201.000000	0.886761
1200.000000	0.884230
1199.000000	0.883410
1198.000000	0.883165
1197.000000	0.884651
1196.000000	0.884521
1195.000000	0.883552
1194.000000	0.883306
1193.000000	0.881830
1192.000000	0.883074
1191.000000	0.884106
1190.000000	0.883972
1189.000000	0.882270
1188.000000	0.881941
1187.000000	0.881706
1186.000000	0.881130
1185.000000	0.880431
1184.000000	0.880164
1183.000000	0.879291
1182.000000	0.879809
1181.000000	0.880319
1180.000000	0.879817
1179.000000	0.880219
1178.000000	0.880733
1177.000000	0.880386
1176.000000	0.878363
1175.000000	0.878700
1174.000000	0.878997
1173.000000	0.878928
1172.000000	0.878912
1171.000000	0.878847
1170.000000	0.878446
1169.000000	0.877854
1168.000000	0.876843
1167.000000	0.876453
1166.000000	0.877808
1165.000000	0.877292
1164.000000	0.876561
1163.000000	0.876332
1162.000000	0.876820
1161.000000	0.877175
1160.000000	0.876567
1159.000000	0.876749
1158.000000	0.875331
1157.000000	0.874316
1156.000000	0.874954
1155.000000	0.874339
1154.000000	0.874068
1153.000000	0.872904
1152.000000	0.872918
1151.000000	0.873454
1150.000000	0.872296
1149.000000	0.873011
1148.000000	0.872588
1147.000000	0.872711
1146.000000	0.872560
1145.000000	0.872127
1144.000000	0.871906
1143.000000	0.871282
1142.000000	0.871327
1141.000000	0.870215
1140.000000	0.870706
1139.000000	0.871257
1138.000000	0.870469
1137.000000	0.869875
1136.000000	0.869567
1135.000000	0.870363
1134.000000	0.869795
1133.000000	0.869019
1132.000000	0.869748
1131.000000	0.868851
1130.000000	0.868593
1129.000000	0.868806
1128.000000	0.869083
1127.000000	0.868618
1126.000000	0.867934
1125.000000	0.867448
1124.000000	0.867630
1123.000000	0.867236
1122.000000	0.866909
1121.000000	0.866767
1120.000000	0.865789
1119.000000	0.865684
1118.000000	0.865966
1117.000000	0.865392
1116.000000	0.866027
1115.000000	0.864395
1114.000000	0.863925
1113.000000	0.862090
1112.000000	0.863055
1111.000000	0.863276
1110.000000	0.864149
1109.000000	0.864416
1108.000000	0.863892
1107.000000	0.862796
1106.000000	0.862818
1105.000000	0.863394
1104.000000	0.862831
1103.000000	0.863225
1102.000000	0.861395
1101.000000	0.860819
1100.000000	0.862430
1099.000000	0.861941
1098.000000	0.860298
1097.000000	0.860535
1096.000000	0.859914
1095.000000	0.858131
1094.000000	0.860163
1093.000000	0.858086
1092.000000	0.859289
1091.000000	0.857905
1090.000000	0.858664
1089.000000	0.858182
1088.000000	0.858256
1087.000000	0.857587
1086.000000	0.856736
1085.000000	0.857964
1084.000000	0.857083
1083.000000	0.855781
1082.000000	0.855312
1081.000000	0.854912
1080.000000	0.855534
1079.000000	0.856874
1078.000000	0.854486
1077.000000	0.854573
1076.000000	0.854507
1075.000000	0.854007
1074.000000	0.855217
1073.000000	0.853716
1072.000000	0.853077
1071.000000	0.853075
1070.000000	0.854675
1069.000000	0.853699
1068.000000	0.853398
1067.000000	0.853849
1066.000000	0.854200
1065.000000	0.853718
1064.000000	0.853619
1063.000000	0.852830
1062.000000	0.853086
1061.000000	0.851735
1060.000000	0.850751
1059.000000	0.851824
1058.000000	0.850073
1057.000000	0.850236
1056.000000	0.848609
1055.000000	0.849613
1054.000000	0.850453
1053.000000	0.850357
1052.000000	0.850355
1051.000000	0.846952
1050.000000	0.847643
1049.000000	0.848044
1048.000000	0.848484
1047.000000	0.850507
1046.000000	0.848530
1045.000000	0.848323
1044.000000	0.848380
1043.000000	0.845785
1042.000000	0.845636
1041.000000	0.844494
1040.000000	0.844544
1039.000000	0.845714
1038.000000	0.845246
1037.000000	0.845880
1036.000000	0.843273
1035.000000	0.846671
1034.000000	0.843620
1033.000000	0.845646
1032.000000	0.847362
1031.000000	0.841956
1030.000000	0.843965
1029.000000	0.843986
1028.000000	0.842221
1027.000000	0.841210
1026.000000	0.844580
1025.000000	0.844098
1024.000000	0.842930
1023.000000	0.843173
1022.000000	0.841473
1021.000000	0.841200
1020.000000	0.838726
1019.000000	0.839585
1018.000000	0.839950
1017.000000	0.841959
1016.000000	0.838840
1015.000000	0.840893
1014.000000	0.838608
1013.000000	0.841180
1012.000000	0.839633
1011.000000	0.835261
1010.000000	0.838112
1009.000000	0.838617
1008.000000	0.836470
1007.000000	0.833099
1006.000000	0.833950
1005.000000	0.834134
1004.000000	0.836832
1003.000000	0.837386
1002.000000	0.833051
1001.000000	0.834923
1000.000000	0.834980
999.000000	0.835994
998.000000	0.836284
997.000000	0.836933
996.000000	0.835605
995.000000	0.834893
994.000000	0.836220
993.000000	0.833582
992.000000	0.834615
991.000000	0.833513
990.000000	0.832983
989.000000	0.830368
988.000000	0.831962
987.000000	0.829756
986.000000	0.833091
985.000000	0.832989
984.000000	0.833743
983.000000	0.832676
982.000000	0.831983
981.000000	0.831467
980.000000	0.830856
979.000000	0.828399
978.000000	0.830205
977.000000	0.831494
976.000000	0.827837
975.000000	0.829391
974.000000	0.829563
973.000000	0.826642
972.000000	0.829933
971.000000	0.828457
970.000000	0.827629
969.000000	0.826011
968.000000	0.825495
967.000000	0.824189
966.000000	0.828109
965.000000	0.827962
964.000000	0.825706
963.000000	0.827604
962.000000	0.826330
961.000000	0.824636
960.000000	0.821514
959.000000	0.821951
958.000000	0.823185
957.000000	0.824361
956.000000	0.824045
955.000000	0.823017
954.000000	0.821685
953.000000	0.821961
952.000000	0.825398
951.000000	0.822880
950.000000	0.821691
949.000000	0.820717
948.000000	0.820285
947.000000	0.823515
946.000000	0.822428
945.000000	0.820839
944.000000	0.818629
943.000000	0.814830
942.000000	0.815129
941.000000	0.818249
940.000000	0.817179
939.000000	0.820996
938.000000	0.818027
937.000000	0.815382
936.000000	0.817347
935.000000	0.820612
934.000000	0.820365
933.000000	0.815194
932.000000	0.811458
931.000000	0.814109
930.000000	0.817850
929.000000	0.812123
928.000000	0.806525
927.000000	0.807808
926.000000	0.812671
925.000000	0.814682
924.000000	0.813072
923.000000	0.811502
922.000000	0.815440
921.000000	0.816924
920.000000	0.815313
919.000000	0.820183
918.000000	0.817107
917.000000	0.810185
916.000000	0.810902
915.000000	0.817145
914.000000	0.817035
913.000000	0.814785
912.000000	0.818566
911.000000	0.813359
910.000000	0.803845
909.000000	0.807808
908.000000	0.811753
907.000000	0.809413
906.000000	0.804206
905.000000	0.800902
904.000000	0.807312
903.000000	0.807318
902.000000	0.807398
901.000000	0.803419
900.000000	0.807058
899.000000	0.816123
898.000000	0.817509
897.000000	0.809067
896.000000	0.801332
895.000000	0.794233
894.000000	0.796773
893.000000	0.809976
892.000000	0.803818
891.000000	0.798986
890.000000	0.796103
889.000000	0.797374
888.000000	0.798179
887.000000	0.802939
886.000000	0.794726
885.000000	0.785501
884.000000	0.793398
883.000000	0.788769
882.000000	0.800257
881.000000	0.793438
880.000000	0.793779
879.000000	0.788233
878.000000	0.791933
877.000000	0.804033
876.000000	0.797248
875.000000	0.798020
874.000000	0.789416
873.000000	0.788774
872.000000	0.804653
871.000000	0.810031
870.000000	0.803840
869.000000	0.788062
868.000000	0.780692
867.000000	0.788365
866.000000	0.802560
865.000000	0.809641
864.000000	0.809198
863.000000	0.789752
862.000000	0.800711
861.000000	0.814266
860.000000	0.829578
859.000000	0.830909
858.000000	0.830915
857.000000	0.841120
856.000000	0.836862
855.000000	0.827451
854.000000	0.829700
853.000000	0.832292
852.000000	0.830449
851.000000	0.833096
850.000000	0.826279
849.000000	0.824923
848.000000	0.822475
847.000000	0.821978
846.000000	0.824439
845.000000	0.821232
844.000000	0.819228
843.000000	0.822278
842.000000	0.822244
841.000000	0.820748
840.000000	0.821782
839.000000	0.817546
838.000000	0.817998
837.000000	0.815102
836.000000	0.813440
835.000000	0.813383
834.000000	0.815217
833.000000	0.814958
832.000000	0.816428
831.000000	0.813641
830.000000	0.813613
829.000000	0.811108
828.000000	0.812883
827.000000	0.812336
826.000000	0.809930
825.000000	0.812318
824.000000	0.809445
823.000000	0.811251
822.000000	0.811376
821.000000	0.809270
820.000000	0.810031
819.000000	0.809423
818.000000	0.807856
817.000000	0.805938
816.000000	0.808128
815.000000	0.809359
814.000000	0.805655
813.000000	0.805630
812.000000	0.807659
811.000000	0.806251
810.000000	0.804963
809.000000	0.804502
808.000000	0.805272
807.000000	0.802187
806.000000	0.804823
805.000000	0.804896
804.000000	0.802009
803.000000	0.804493
802.000000	0.802757
801.000000	0.801849
800.000000	0.801533
799.000000	0.800748
798.000000	0.800539
797.000000	0.799983
796.000000	0.798234
795.000000	0.799272
794.000000	0.798055
793.000000	0.797307
792.000000	0.797836
791.000000	0.796576
790.000000	0.795951
789.000000	0.799670
788.000000	0.796893
787.000000	0.797022
786.000000	0.795562
785.000000	0.795656
784.000000	0.795711
783.000000	0.794075
782.000000	0.795116
781.000000	0.792934
780.000000	0.793974
779.000000	0.793338
778.000000	0.792242
777.000000	0.791304
776.000000	0.792007
775.000000	0.792515
774.000000	0.789765
773.000000	0.789512
772.000000	0.789235
771.000000	0.789100
770.000000	0.790295
769.000000	0.788807
768.000000	0.787656
767.000000	0.786506
766.000000	0.786738
765.000000	0.787030
764.000000	0.787483
763.000000	0.786407
762.000000	0.786564
761.000000	0.785835
760.000000	0.785004
759.000000	0.784981
758.000000	0.785166
757.000000	0.783710
756.000000	0.783643
755.000000	0.782525
754.000000	0.781914
753.000000	0.782564
752.000000	0.782842
751.000000	0.782725
750.000000	0.780503
749.000000	0.781069
748.000000	0.780123
747.000000	0.778763
746.000000	0.778076
745.000000	0.776400
744.000000	0.778185
743.000000	0.777274
742.000000	0.776808
741.000000	0.777148
740.000000	0.776802
739.000000	0.775880
738.000000	0.775114
737.000000	0.774929
736.000000	0.773729
735.000000	0.773698
734.000000	0.774375
733.000000	0.773150
732.000000	0.773008
731.000000	0.772742
730.000000	0.770898
729.000000	0.771325
728.000000	0.771127
727.000000	0.770593
726.000000	0.770118
725.000000	0.768566
724.000000	0.768269
723.000000	0.768965
722.000000	0.767613
721.000000	0.767749
720.000000	0.767685
719.000000	0.767404
718.000000	0.767143
717.000000	0.766637
716.000000	0.765918
715.000000	0.764564
714.000000	0.764687
713.000000	0.763867
712.000000	0.763613
711.000000	0.762908
710.000000	0.762644
709.000000	0.762422
708.000000	0.761542
707.000000	0.759972
706.000000	0.760270
705.000000	0.759872
704.000000	0.759527
703.000000	0.758824
702.000000	0.758520
701.000000	0.757830
700.000000	0.757908
699.000000	0.757475
698.000000	0.756866
697.000000	0.755479
696.000000	0.755279
695.000000	0.754921
694.000000	0.753860
693.000000	0.753359
692.000000	0.753060
691.000000	0.752469
690.000000	0.752240
689.000000	0.752212
688.000000	0.751288
687.000000	0.750958
686.000000	0.750436
685.000000	0.749880
684.000000	0.748896
683.000000	0.748535
682.000000	0.748602
681.000000	0.747980
680.000000	0.747508
679.000000	0.747267
678.000000	0.746599
677.000000	0.745712
676.000000	0.745691
675.000000	0.745037
674.000000	0.743950
673.000000	0.743509
672.000000	0.743218
671.000000	0.743135
670.000000	0.742633
669.000000	0.741571
668.000000	0.740597
667.000000	0.740163
666.000000	0.740108
665.000000	0.739629
664.000000	0.738833
663.000000	0.738673
662.000000	0.738236
661.000000	0.737546
660.000000	0.737487
659.000000	0.736792
658.000000	0.735543
657.000000	0.734842
656.000000	0.735026
655.000000	0.734800
654.000000	0.734124
653.000000	0.732866
652.000000	0.732261
651.000000	0.732336
650.000000	0.732026
649.000000	0.731856
648.000000	0.731310
647.000000	0.730521
646.000000	0.730139
645.000000	0.729413
644.000000	0.728562
643.000000	0.728105
642.000000	0.727516
641.000000	0.727099
640.000000	0.726192
639.000000	0.725808
638.000000	0.726124
637.000000	0.725410
636.000000	0.724198
635.000000	0.723709
634.000000	0.723278
633.000000	0.722456
632.000000	0.722167
631.000000	0.721676
630.000000	0.720857
629.000000	0.719996
628.000000	0.719835
627.000000	0.719565
626.000000	0.719044
625.000000	0.718099
624.000000	0.717552
623.000000	0.717105
622.000000	0.716370
621.000000	0.716262
620.000000	0.715763
619.000000	0.714565
618.000000	0.714277
617.000000	0.713823
616.000000	0.713221
615.000000	0.712536
614.000000	0.712500
613.000000	0.711696
612.000000	0.710676
611.000000	0.710503
610.000000	0.710178
609.000000	0.709783
608.000000	0.709296
607.000000	0.708803
606.000000	0.708626
605.000000	0.708339
604.000000	0.707229
603.000000	0.706812
602.000000	0.706410
601.000000	0.706720
600.000000	0.706315
599.000000	0.706050
598.000000	0.706063
597.000000	0.706069
596.000000	0.706263
595.000000	0.706223
594.000000	0.706657
593.000000	0.706578
592.000000	0.707078
591.000000	0.707936
590.000000	0.708778
589.000000	0.709396
588.000000	0.710021
587.000000	0.711398
586.000000	0.712580
585.000000	0.714025
584.000000	0.715325
583.000000	0.716767
582.000000	0.718105
581.000000	0.719307
580.000000	0.719546
579.000000	0.720930
578.000000	0.721415
577.000000	0.722103
576.000000	0.723228
575.000000	0.722835
574.000000	0.723129
573.000000	0.723216
572.000000	0.723056
571.000000	0.723176
570.000000	0.723026
569.000000	0.722474
568.000000	0.721912
567.000000	0.721403
566.000000	0.720734
565.000000	0.720252
564.000000	0.719661
563.000000	0.719131
562.000000	0.718947
561.000000	0.718709
560.000000	0.717919
559.000000	0.717267
558.000000	0.716789
557.000000	0.715457
556.000000	0.715046
555.000000	0.714031
554.000000	0.712864
553.000000	0.712294
552.000000	0.711387
551.000000	0.710565
550.000000	0.710351
549.000000	0.709346
548.000000	0.708249
547.000000	0.707515
546.000000	0.706880
545.000000	0.706572
544.000000	0.705278
543.000000	0.704082
542.000000	0.703386
541.000000	0.703077
540.000000	0.702114
539.000000	0.701376
538.000000	0.700507
537.000000	0.699765
536.000000	0.699555
535.000000	0.699263
534.000000	0.698665
533.000000	0.697827
532.000000	0.696925
531.000000	0.696234
530.000000	0.696044
529.000000	0.695075
528.000000	0.694507
527.000000	0.694226
526.000000	0.693224
525.000000	0.692606
524.000000	0.692301
523.000000	0.691066
522.000000	0.690729
521.000000	0.689818
520.000000	0.688722
519.000000	0.687881
518.000000	0.687135
517.000000	0.686099
516.000000	0.685092
515.000000	0.684199
514.000000	0.683234
513.000000	0.682302
512.000000	0.681472
511.000000	0.679986
510.000000	0.679325
509.000000	0.678844
508.000000	0.678141
507.000000	0.676460
506.000000	0.676596
505.000000	0.675816
504.000000	0.675812
503.000000	0.676558
502.000000	0.676930
501.000000	0.677521
500.000000	0.678329
499.000000	0.679275
498.000000	0.681173
497.000000	0.683227
496.000000	0.684534
495.000000	0.685628
494.000000	0.688367
493.000000	0.690523
492.000000	0.692648
491.000000	0.695263
490.000000	0.696759
489.000000	0.698556
488.000000	0.700727
487.000000	0.702057
486.000000	0.703245
485.000000	0.703843
484.000000	0.705009
483.000000	0.705900
482.000000	0.706089
481.000000	0.706068
480.000000	0.706279
479.000000	0.705958
478.000000	0.705339
477.000000	0.704750
476.000000	0.704470
475.000000	0.703310
474.000000	0.701961
473.000000	0.701595
472.000000	0.700675
471.000000	0.699735
470.000000	0.698238
469.000000	0.696979
468.000000	0.695856
467.000000	0.694558
466.000000	0.693280
465.000000	0.692424
464.000000	0.690728
463.000000	0.689722
462.000000	0.688663
461.000000	0.687306
460.000000	0.686553
459.000000	0.685965
458.000000	0.684881
457.000000	0.683999
456.000000	0.683219
455.000000	0.682021
454.000000	0.681300
453.000000	0.680742
452.000000	0.680171
451.000000	0.679021
450.000000	0.678277
449.000000	0.677203
448.000000	0.677541
447.000000	0.676316
446.000000	0.675403
445.000000	0.673925
444.000000	0.673320
443.000000	0.672865
442.000000	0.671162
441.000000	0.670457
440.000000	0.670301
439.000000	0.669193
438.000000	0.667348
437.000000	0.666667
436.000000	0.665417
435.000000	0.664168
434.000000	0.663801
433.000000	0.662472
432.000000	0.660591
431.000000	0.659288
430.000000	0.658023
429.000000	0.656597
428.000000	0.655665
427.000000	0.654390
426.000000	0.653153
425.000000	0.652318
424.000000	0.651632
423.000000	0.650050
422.000000	0.648954
421.000000	0.647910
420.000000	0.647085
419.000000	0.646282
418.000000	0.644504
417.000000	0.643156
416.000000	0.642152
415.000000	0.640820
414.000000	0.639752
413.000000	0.639249
412.000000	0.638672
411.000000	0.637754
410.000000	0.637736
409.000000	0.637773
408.000000	0.638373
407.000000	0.639134
406.000000	0.640590
405.000000	0.643146
404.000000	0.645952
403.000000	0.650212
402.000000	0.655586
401.000000	0.660727
400.000000	0.667873
399.000000	0.676029
398.000000	0.684364
397.000000	0.693991
396.000000	0.705567
395.000000	0.718942
394.000000	0.733508
393.000000	0.748125
392.000000	0.763739
391.000000	0.780519
390.000000	0.797960
389.000000	0.814858
388.000000	0.832028
387.000000	0.849892
386.000000	0.866274
385.000000	0.882022
384.000000	0.897456
383.000000	0.912783
382.000000	0.926973
381.000000	0.939866
380.000000	0.953564
379.000000	0.967988
378.000000	0.983333
377.000000	0.995771
376.000000	1.006990
375.000000	1.017234
374.000000	1.025991
373.000000	1.035548
372.000000	1.045410
371.000000	1.053979
370.000000	1.063453
369.000000	1.072283
368.000000	1.080552
367.000000	1.089194
366.000000	1.097702
365.000000	1.105967
364.000000	1.113376
363.000000	1.120088
362.000000	1.125894
361.000000	1.134204
360.000000	1.140220
359.000000	1.145277
358.000000	1.153559
357.000000	1.158663
356.000000	1.163197
355.000000	1.169929
354.000000	1.174781
353.000000	1.180181
352.000000	1.185667
351.000000	1.190076
350.000000	1.191253
349.000000	1.192344
348.000000	1.197427
347.000000	1.201524
346.000000	1.204223
345.000000	1.203569
344.000000	1.202743
343.000000	1.206047
342.000000	1.208657
341.000000	1.210105
340.000000	1.210433
339.000000	1.210472
338.000000	1.210143
337.000000	1.209246
336.000000	1.210632
335.000000	1.208637
334.000000	1.205745
333.000000	1.206787
332.000000	1.206139
331.000000	1.203583
330.000000	1.201931
329.000000	1.200768
328.000000	1.199733
327.000000	1.194324
326.000000	1.193831
325.000000	1.195421
324.000000	1.193310
323.000000	1.188725
322.000000	1.186801
321.000000	1.189024
320.000000	1.185273
319.000000	1.190827
318.000000	1.192352
317.000000	1.189875
316.000000	1.189327
315.000000	1.186550
314.000000	1.185228
313.000000	1.185914
312.000000	1.181713
311.000000	1.180929
310.000000	1.182709
309.000000	1.178050
308.000000	1.180319
307.000000	1.180078
306.000000	1.180822
305.000000	1.178087
304.000000	1.177454
303.000000	1.177966
302.000000	1.179458
301.000000	1.176941
300.000000	1.177585
299.000000	1.180307
298.000000	1.181079
297.000000	1.179486
296.000000	1.179168
295.000000	1.181107
294.000000	1.179445
293.000000	1.182997
292.000000	1.182623
291.000000	1.180226
290.000000	1.179461
289.000000	1.182206
288.000000	1.180695
287.000000	1.182389
286.000000	1.180080
285.000000	1.178286
284.000000	1.181245
283.000000	1.180992
282.000000	1.179185
281.000000	1.177385
280.000000	1.178923
279.000000	1.178252
278.000000	1.178336
277.000000	1.179524
276.000000	1.177747
275.000000	1.178215
274.000000	1.176943
273.000000	1.174034
272.000000	1.173754
271.000000	1.173541
270.000000	1.172502
269.000000	1.170886
268.000000	1.170651
267.000000	1.169981
266.000000	1.167790
265.000000	1.169846
264.000000	1.168002
263.000000	1.168450
262.000000	1.167700
261.000000	1.165645
260.000000	1.166559
259.000000	1.168243
258.000000	1.164943
257.000000	1.166376
256.000000	1.165678
255.000000	1.164131
254.000000	1.164937
253.000000	1.165159
252.000000	1.163062
251.000000	1.162837
250.000000	1.163615
249.000000	1.162025
248.000000	1.161436
247.000000	1.159816
246.000000	1.157938
245.000000	1.157770
244.000000	1.157038
243.000000	1.155780
242.000000	1.155004
241.000000	1.154231
240.000000	1.152229
239.000000	1.152928
238.000000	1.150889
237.000000	1.151570
236.000000	1.148853
235.000000	1.146704
234.000000	1.150436
233.000000	1.145539
232.000000	1.145746
231.000000	1.141937
230.000000	1.140385
229.000000	1.141646
228.000000	1.139052
227.000000	1.137260
226.000000	1.135885
225.000000	1.133464
224.000000	1.132588
223.000000	1.131093
222.000000	1.131172
221.000000	1.129680
220.000000	1.126230
219.000000	1.125345
218.000000	1.123099
217.000000	1.117798
216.000000	1.117091
215.000000	1.116722
214.000000	1.112530
213.000000	1.112171
212.000000	1.110973
211.000000	1.107631
210.000000	1.107713
209.000000	1.103209
208.000000	1.102134
207.000000	1.100633
206.000000	1.096750
205.000000	1.093489
204.000000	1.088819
203.000000	1.084136
202.000000	1.081442
201.000000	1.075797
200.000000	1.067744
199.000000	1.062249
198.000000	1.060462
197.000000	1.055545
196.000000	1.058740
195.000000	1.041351
194.000000	1.032276
193.000000	1.011513
192.000000	0.982816
191.000000	0.953783
190.000000	0.884382
189.000000	0.725778
188.000000	0.460412
187.000000	0.167326
186.000000	0.041435
185.000000	-0.002208
184.000000	0.006948
183.000000	0.024370
182.000000	0.013157
181.000000	0.010856
180.000000	0.011158
179.000000	-0.011678
178.000000	-0.011648
177.000000	0.011046
176.000000	-0.005371
175.000000	0.021735
