PE UV       SUBTECH     SPECTRUM    ASCII       PEDS        4.00        
   -1
Sample5.Sample.Raw.asc
25/05/30
11:58:57.00
25/05/30
11:58:57.00
tom jordan
JJC R2
175.000000
1
Lambda 1050
1050L1807051
PerkinElmer UV WinLab 6.4.0.973 / 2.02.06 Lambda 900 UV/VIS/NIR, Jan 28 2016 16:58:34

0
0
3350/servo 860.8/2
0
0
UV/VIS
1
1
1
RBeamAtt,SBeamAtt,150mm sphere / downward view, WB InGaAs Detector
0
0
0
0
Program
Program
3350/servo 860.8/2
3350/0.2 860.8/0.2
3350/0.2 860.8/0.2
0
1.00
 
 
 
0
 
860.8
319.2
860.8
Front
100
 
S:100 R:100
 
0
0
0
 
0
 
 
 
0
 
 
0
0
0
0
0
 
 
 
 
0
0


0
0
#HDR
-1
-1
#GR
nm
A
1.0
0.0
2000.000000
-1.000000
1826
8
1.211726
-0.007747
#DATA
2000.000000	0.984178
1999.000000	0.989063
1998.000000	0.989791
1997.000000	0.988441
1996.000000	0.972556
1995.000000	0.985986
1994.000000	0.991322
1993.000000	0.975237
1992.000000	0.995539
1991.000000	1.002843
1990.000000	0.988782
1989.000000	0.998301
1988.000000	0.993026
1987.000000	0.986407
1986.000000	0.986618
1985.000000	0.993383
1984.000000	0.984949
1983.000000	0.996206
1982.000000	0.995508
1981.000000	0.996984
1980.000000	0.995848
1979.000000	0.989217
1978.000000	0.986766
1977.000000	0.991990
1976.000000	1.001360
1975.000000	0.994869
1974.000000	0.997610
1973.000000	0.992302
1972.000000	0.990624
1971.000000	1.004362
1970.000000	0.993274
1969.000000	0.989658
1968.000000	0.999321
1967.000000	0.998170
1966.000000	1.001258
1965.000000	1.002833
1964.000000	1.004056
1963.000000	1.004561
1962.000000	0.996629
1961.000000	1.011819
1960.000000	0.996820
1959.000000	1.008418
1958.000000	0.996033
1957.000000	0.999727
1956.000000	1.011607
1955.000000	1.010656
1954.000000	1.004022
1953.000000	1.006214
1952.000000	1.017031
1951.000000	1.005349
1950.000000	0.998473
1949.000000	1.010637
1948.000000	1.000298
1947.000000	0.995587
1946.000000	0.997063
1945.000000	1.002762
1944.000000	0.997917
1943.000000	0.994892
1942.000000	1.003412
1941.000000	0.993556
1940.000000	0.996184
1939.000000	0.990797
1938.000000	0.993077
1937.000000	0.991809
1936.000000	0.983501
1935.000000	0.988425
1934.000000	0.977563
1933.000000	0.966605
1932.000000	0.966867
1931.000000	0.971180
1930.000000	0.955118
1929.000000	0.966068
1928.000000	0.973385
1927.000000	0.978167
1926.000000	0.980435
1925.000000	0.988479
1924.000000	0.993036
1923.000000	0.998385
1922.000000	1.020232
1921.000000	1.022281
1920.000000	1.015692
1919.000000	1.021417
1918.000000	1.018782
1917.000000	1.004705
1916.000000	0.999410
1915.000000	1.002278
1914.000000	0.991223
1913.000000	0.993301
1912.000000	0.990942
1911.000000	0.979162
1910.000000	0.985594
1909.000000	0.985087
1908.000000	0.976687
1907.000000	0.982533
1906.000000	0.985101
1905.000000	0.985515
1904.000000	0.989821
1903.000000	0.981796
1902.000000	0.978057
1901.000000	0.980540
1900.000000	0.976818
1899.000000	0.976530
1898.000000	0.995865
1897.000000	1.001668
1896.000000	0.992190
1895.000000	0.987392
1894.000000	0.984612
1893.000000	0.994584
1892.000000	0.997803
1891.000000	0.996333
1890.000000	0.984403
1889.000000	0.979952
1888.000000	0.987913
1887.000000	0.973275
1886.000000	0.969466
1885.000000	0.976263
1884.000000	0.970592
1883.000000	0.965305
1882.000000	0.966742
1881.000000	0.977214
1880.000000	0.980187
1879.000000	0.984738
1878.000000	0.986011
1877.000000	0.985387
1876.000000	0.983575
1875.000000	0.993739
1874.000000	1.001822
1873.000000	0.988530
1872.000000	0.985229
1871.000000	0.985386
1870.000000	0.982656
1869.000000	0.978005
1868.000000	0.976848
1867.000000	0.974227
1866.000000	0.969758
1865.000000	0.967880
1864.000000	0.966984
1863.000000	0.969929
1862.000000	0.974286
1861.000000	0.972687
1860.000000	0.980408
1859.000000	0.985502
1858.000000	0.990180
1857.000000	0.990342
1856.000000	0.993350
1855.000000	0.995168
1854.000000	0.986285
1853.000000	0.996198
1852.000000	0.991515
1851.000000	0.979685
1850.000000	0.977408
1849.000000	0.979445
1848.000000	0.978868
1847.000000	0.977008
1846.000000	0.976979
1845.000000	0.976929
1844.000000	0.980856
1843.000000	0.981050
1842.000000	0.985587
1841.000000	0.998208
1840.000000	1.003943
1839.000000	1.003641
1838.000000	0.982340
1837.000000	0.984627
1836.000000	0.979636
1835.000000	0.982126
1834.000000	0.986933
1833.000000	0.985227
1832.000000	0.983155
1831.000000	0.978658
1830.000000	0.977702
1829.000000	0.968576
1828.000000	0.977467
1827.000000	0.984374
1826.000000	0.985245
1825.000000	0.983459
1824.000000	0.983745
1823.000000	0.989930
1822.000000	0.996720
1821.000000	0.993277
1820.000000	0.987607
1819.000000	0.982077
1818.000000	0.984126
1817.000000	0.985927
1816.000000	0.982065
1815.000000	0.989787
1814.000000	0.981544
1813.000000	0.981446
1812.000000	0.983043
1811.000000	0.979922
1810.000000	0.976305
1809.000000	0.983468
1808.000000	0.981444
1807.000000	0.980943
1806.000000	0.985355
1805.000000	0.992584
1804.000000	0.989533
1803.000000	0.985466
1802.000000	0.986543
1801.000000	0.986184
1800.000000	0.986578
1799.000000	0.985986
1798.000000	0.980745
1797.000000	0.975892
1796.000000	0.980713
1795.000000	0.978851
1794.000000	0.979092
1793.000000	0.983133
1792.000000	0.988180
1791.000000	0.985546
1790.000000	0.989553
1789.000000	0.990740
1788.000000	0.982137
1787.000000	0.987118
1786.000000	0.986909
1785.000000	0.981244
1784.000000	0.980285
1783.000000	0.978385
1782.000000	0.980126
1781.000000	0.974216
1780.000000	0.980008
1779.000000	0.983603
1778.000000	0.985379
1777.000000	0.980288
1776.000000	0.978625
1775.000000	0.985519
1774.000000	0.983136
1773.000000	0.984670
1772.000000	0.984216
1771.000000	0.974031
1770.000000	0.980367
1769.000000	0.974963
1768.000000	0.973728
1767.000000	0.979017
1766.000000	0.969056
1765.000000	0.972067
1764.000000	0.980335
1763.000000	0.976262
1762.000000	0.978755
1761.000000	0.981724
1760.000000	0.987386
1759.000000	0.980065
1758.000000	0.991621
1757.000000	0.982381
1756.000000	0.974385
1755.000000	0.974638
1754.000000	0.972477
1753.000000	0.969909
1752.000000	0.966889
1751.000000	0.976823
1750.000000	0.971659
1749.000000	0.969392
1748.000000	0.977176
1747.000000	0.975814
1746.000000	0.978578
1745.000000	0.987504
1744.000000	0.984118
1743.000000	0.979615
1742.000000	0.977121
1741.000000	0.975643
1740.000000	0.971380
1739.000000	0.965089
1738.000000	0.969254
1737.000000	0.972866
1736.000000	0.974438
1735.000000	0.983999
1734.000000	0.978580
1733.000000	0.974623
1732.000000	0.980314
1731.000000	0.975314
1730.000000	0.977983
1729.000000	0.967754
1728.000000	0.964055
1727.000000	0.970198
1726.000000	0.968090
1725.000000	0.980746
1724.000000	0.970298
1723.000000	0.972700
1722.000000	0.972558
1721.000000	0.975946
1720.000000	0.975099
1719.000000	0.971171
1718.000000	0.969255
1717.000000	0.967292
1716.000000	0.966413
1715.000000	0.969634
1714.000000	0.968948
1713.000000	0.969503
1712.000000	0.970598
1711.000000	0.974785
1710.000000	0.975192
1709.000000	0.973501
1708.000000	0.972402
1707.000000	0.973216
1706.000000	0.967712
1705.000000	0.966623
1704.000000	0.969498
1703.000000	0.971929
1702.000000	0.970592
1701.000000	0.971963
1700.000000	0.973098
1699.000000	0.981135
1698.000000	0.981160
1697.000000	0.972894
1696.000000	0.970697
1695.000000	0.967980
1694.000000	0.972128
1693.000000	0.968891
1692.000000	0.970562
1691.000000	0.971505
1690.000000	0.971191
1689.000000	0.973478
1688.000000	0.974778
1687.000000	0.973460
1686.000000	0.969518
1685.000000	0.964850
1684.000000	0.966810
1683.000000	0.967874
1682.000000	0.969599
1681.000000	0.966796
1680.000000	0.964956
1679.000000	0.972874
1678.000000	0.971222
1677.000000	0.971849
1676.000000	0.970051
1675.000000	0.969264
1674.000000	0.965493
1673.000000	0.961694
1672.000000	0.962495
1671.000000	0.965726
1670.000000	0.975425
1669.000000	0.975622
1668.000000	0.974032
1667.000000	0.973376
1666.000000	0.968710
1665.000000	0.962579
1664.000000	0.962192
1663.000000	0.964064
1662.000000	0.964422
1661.000000	0.963611
1660.000000	0.966664
1659.000000	0.966344
1658.000000	0.964839
1657.000000	0.968174
1656.000000	0.968815
1655.000000	0.968544
1654.000000	0.966388
1653.000000	0.963621
1652.000000	0.963229
1651.000000	0.964818
1650.000000	0.966374
1649.000000	0.965461
1648.000000	0.967989
1647.000000	0.970226
1646.000000	0.968210
1645.000000	0.968470
1644.000000	0.966631
1643.000000	0.965951
1642.000000	0.962524
1641.000000	0.960343
1640.000000	0.962849
1639.000000	0.962724
1638.000000	0.966452
1637.000000	0.966826
1636.000000	0.967431
1635.000000	0.970878
1634.000000	0.971199
1633.000000	0.970380
1632.000000	0.964871
1631.000000	0.962679
1630.000000	0.962728
1629.000000	0.958911
1628.000000	0.960283
1627.000000	0.962756
1626.000000	0.963794
1625.000000	0.964344
1624.000000	0.965441
1623.000000	0.962690
1622.000000	0.957632
1621.000000	0.957673
1620.000000	0.958926
1619.000000	0.960289
1618.000000	0.962875
1617.000000	0.965908
1616.000000	0.963678
1615.000000	0.962578
1614.000000	0.965442
1613.000000	0.962705
1612.000000	0.957908
1611.000000	0.956157
1610.000000	0.960631
1609.000000	0.961101
1608.000000	0.959422
1607.000000	0.963243
1606.000000	0.963788
1605.000000	0.962296
1604.000000	0.960987
1603.000000	0.959252
1602.000000	0.959994
1601.000000	0.959485
1600.000000	0.959520
1599.000000	0.954998
1598.000000	0.959298
1597.000000	0.960474
1596.000000	0.960852
1595.000000	0.959477
1594.000000	0.958471
1593.000000	0.956753
1592.000000	0.954626
1591.000000	0.955989
1590.000000	0.959120
1589.000000	0.955264
1588.000000	0.958503
1587.000000	0.959358
1586.000000	0.959340
1585.000000	0.959022
1584.000000	0.957288
1583.000000	0.958360
1582.000000	0.953777
1581.000000	0.955653
1580.000000	0.957176
1579.000000	0.955635
1578.000000	0.958346
1577.000000	0.958905
1576.000000	0.960456
1575.000000	0.955784
1574.000000	0.956353
1573.000000	0.956468
1572.000000	0.954751
1571.000000	0.952294
1570.000000	0.954986
1569.000000	0.955187
1568.000000	0.956968
1567.000000	0.957581
1566.000000	0.956889
1565.000000	0.955777
1564.000000	0.957982
1563.000000	0.954224
1562.000000	0.956216
1561.000000	0.953617
1560.000000	0.953649
1559.000000	0.956341
1558.000000	0.953534
1557.000000	0.954699
1556.000000	0.954147
1555.000000	0.956964
1554.000000	0.953097
1553.000000	0.953000
1552.000000	0.951058
1551.000000	0.950666
1550.000000	0.951593
1549.000000	0.951501
1548.000000	0.949639
1547.000000	0.952756
1546.000000	0.949806
1545.000000	0.951927
1544.000000	0.955849
1543.000000	0.950773
1542.000000	0.951763
1541.000000	0.951820
1540.000000	0.949662
1539.000000	0.949040
1538.000000	0.953090
1537.000000	0.952867
1536.000000	0.952357
1535.000000	0.949770
1534.000000	0.951970
1533.000000	0.950739
1532.000000	0.947388
1531.000000	0.950830
1530.000000	0.947595
1529.000000	0.948828
1528.000000	0.952368
1527.000000	0.952320
1526.000000	0.949713
1525.000000	0.950411
1524.000000	0.949857
1523.000000	0.948554
1522.000000	0.943118
1521.000000	0.947971
1520.000000	0.945300
1519.000000	0.949847
1518.000000	0.952440
1517.000000	0.949651
1516.000000	0.948377
1515.000000	0.948258
1514.000000	0.946751
1513.000000	0.943261
1512.000000	0.944007
1511.000000	0.945717
1510.000000	0.946135
1509.000000	0.945761
1508.000000	0.946612
1507.000000	0.950898
1506.000000	0.946574
1505.000000	0.945901
1504.000000	0.945293
1503.000000	0.941238
1502.000000	0.946895
1501.000000	0.942251
1500.000000	0.943840
1499.000000	0.944626
1498.000000	0.944657
1497.000000	0.945903
1496.000000	0.944087
1495.000000	0.942731
1494.000000	0.942767
1493.000000	0.939536
1492.000000	0.938820
1491.000000	0.942189
1490.000000	0.946414
1489.000000	0.943108
1488.000000	0.942255
1487.000000	0.942109
1486.000000	0.938515
1485.000000	0.937042
1484.000000	0.938124
1483.000000	0.942130
1482.000000	0.941258
1481.000000	0.942786
1480.000000	0.943490
1479.000000	0.941563
1478.000000	0.940439
1477.000000	0.940677
1476.000000	0.939275
1475.000000	0.938575
1474.000000	0.936893
1473.000000	0.939817
1472.000000	0.938181
1471.000000	0.940930
1470.000000	0.943167
1469.000000	0.940420
1468.000000	0.940319
1467.000000	0.938446
1466.000000	0.937727
1465.000000	0.937084
1464.000000	0.936956
1463.000000	0.938240
1462.000000	0.937891
1461.000000	0.940254
1460.000000	0.939315
1459.000000	0.938113
1458.000000	0.938527
1457.000000	0.936065
1456.000000	0.936375
1455.000000	0.935294
1454.000000	0.932621
1453.000000	0.933655
1452.000000	0.934709
1451.000000	0.939257
1450.000000	0.937608
1449.000000	0.937024
1448.000000	0.935376
1447.000000	0.932789
1446.000000	0.931567
1445.000000	0.931042
1444.000000	0.936211
1443.000000	0.935065
1442.000000	0.934044
1441.000000	0.935749
1440.000000	0.935850
1439.000000	0.935104
1438.000000	0.932410
1437.000000	0.932800
1436.000000	0.933170
1435.000000	0.930628
1434.000000	0.932962
1433.000000	0.932800
1432.000000	0.933920
1431.000000	0.936503
1430.000000	0.935163
1429.000000	0.933062
1428.000000	0.931419
1427.000000	0.931389
1426.000000	0.930390
1425.000000	0.929977
1424.000000	0.932281
1423.000000	0.929529
1422.000000	0.930104
1421.000000	0.933463
1420.000000	0.932719
1419.000000	0.932739
1418.000000	0.930881
1417.000000	0.928922
1416.000000	0.929318
1415.000000	0.929598
1414.000000	0.929550
1413.000000	0.929156
1412.000000	0.929205
1411.000000	0.929392
1410.000000	0.929702
1409.000000	0.928807
1408.000000	0.926974
1407.000000	0.925979
1406.000000	0.925298
1405.000000	0.926833
1404.000000	0.928418
1403.000000	0.927701
1402.000000	0.929411
1401.000000	0.929592
1400.000000	0.927792
1399.000000	0.925822
1398.000000	0.926025
1397.000000	0.926168
1396.000000	0.924535
1395.000000	0.925643
1394.000000	0.926038
1393.000000	0.927754
1392.000000	0.928284
1391.000000	0.927841
1390.000000	0.926427
1389.000000	0.923231
1388.000000	0.923270
1387.000000	0.923201
1386.000000	0.922091
1385.000000	0.922860
1384.000000	0.922285
1383.000000	0.922803
1382.000000	0.924897
1381.000000	0.927723
1380.000000	0.926709
1379.000000	0.925562
1378.000000	0.923777
1377.000000	0.922849
1376.000000	0.920924
1375.000000	0.919980
1374.000000	0.921996
1373.000000	0.921646
1372.000000	0.920564
1371.000000	0.921194
1370.000000	0.921004
1369.000000	0.921266
1368.000000	0.923745
1367.000000	0.923625
1366.000000	0.921584
1365.000000	0.920978
1364.000000	0.919512
1363.000000	0.919594
1362.000000	0.918326
1361.000000	0.920277
1360.000000	0.918580
1359.000000	0.916851
1358.000000	0.920069
1357.000000	0.920302
1356.000000	0.921251
1355.000000	0.920184
1354.000000	0.917695
1353.000000	0.918345
1352.000000	0.916521
1351.000000	0.917634
1350.000000	0.916577
1349.000000	0.917602
1348.000000	0.918943
1347.000000	0.918674
1346.000000	0.917877
1345.000000	0.919641
1344.000000	0.919580
1343.000000	0.917097
1342.000000	0.915883
1341.000000	0.916549
1340.000000	0.914095
1339.000000	0.915786
1338.000000	0.914779
1337.000000	0.913752
1336.000000	0.915346
1335.000000	0.918019
1334.000000	0.916284
1333.000000	0.916900
1332.000000	0.917110
1331.000000	0.915766
1330.000000	0.913857
1329.000000	0.914153
1328.000000	0.912705
1327.000000	0.912953
1326.000000	0.913355
1325.000000	0.914443
1324.000000	0.915399
1323.000000	0.914930
1322.000000	0.915318
1321.000000	0.915739
1320.000000	0.913402
1319.000000	0.912598
1318.000000	0.910833
1317.000000	0.910418
1316.000000	0.911140
1315.000000	0.913012
1314.000000	0.911213
1313.000000	0.911032
1312.000000	0.912464
1311.000000	0.911874
1310.000000	0.911555
1309.000000	0.913215
1308.000000	0.911108
1307.000000	0.910123
1306.000000	0.907298
1305.000000	0.908156
1304.000000	0.909942
1303.000000	0.909591
1302.000000	0.910907
1301.000000	0.910265
1300.000000	0.909573
1299.000000	0.910649
1298.000000	0.908817
1297.000000	0.907837
1296.000000	0.905781
1295.000000	0.906590
1294.000000	0.904443
1293.000000	0.905099
1292.000000	0.906875
1291.000000	0.906460
1290.000000	0.907320
1289.000000	0.906818
1288.000000	0.908853
1287.000000	0.906607
1286.000000	0.903886
1285.000000	0.904786
1284.000000	0.902994
1283.000000	0.903855
1282.000000	0.902952
1281.000000	0.904951
1280.000000	0.903387
1279.000000	0.905154
1278.000000	0.905254
1277.000000	0.903061
1276.000000	0.903653
1275.000000	0.902137
1274.000000	0.902083
1273.000000	0.901759
1272.000000	0.901237
1271.000000	0.901000
1270.000000	0.903557
1269.000000	0.902726
1268.000000	0.902560
1267.000000	0.902462
1266.000000	0.902683
1265.000000	0.899434
1264.000000	0.897744
1263.000000	0.899237
1262.000000	0.899020
1261.000000	0.898873
1260.000000	0.899697
1259.000000	0.901432
1258.000000	0.898726
1257.000000	0.898694
1256.000000	0.899072
1255.000000	0.896657
1254.000000	0.896136
1253.000000	0.898392
1252.000000	0.898169
1251.000000	0.898496
1250.000000	0.899228
1249.000000	0.898483
1248.000000	0.897088
1247.000000	0.894930
1246.000000	0.895289
1245.000000	0.894386
1244.000000	0.893938
1243.000000	0.894776
1242.000000	0.894371
1241.000000	0.895767
1240.000000	0.895891
1239.000000	0.897344
1238.000000	0.893443
1237.000000	0.893968
1236.000000	0.893146
1235.000000	0.892167
1234.000000	0.892116
1233.000000	0.893039
1232.000000	0.893346
1231.000000	0.892504
1230.000000	0.893196
1229.000000	0.893105
1228.000000	0.890832
1227.000000	0.892059
1226.000000	0.892013
1225.000000	0.889871
1224.000000	0.889357
1223.000000	0.889980
1222.000000	0.889244
1221.000000	0.889751
1220.000000	0.891566
1219.000000	0.892584
1218.000000	0.891471
1217.000000	0.889761
1216.000000	0.889043
1215.000000	0.889304
1214.000000	0.888838
1213.000000	0.889314
1212.000000	0.887603
1211.000000	0.887285
1210.000000	0.888573
1209.000000	0.887675
1208.000000	0.886906
1207.000000	0.887921
1206.000000	0.888712
1205.000000	0.887938
1204.000000	0.886807
1203.000000	0.886762
1202.000000	0.885398
1201.000000	0.884186
1200.000000	0.884433
1199.000000	0.884573
1198.000000	0.883934
1197.000000	0.885286
1196.000000	0.884859
1195.000000	0.884037
1194.000000	0.885626
1193.000000	0.884706
1192.000000	0.884623
1191.000000	0.884712
1190.000000	0.882824
1189.000000	0.881777
1188.000000	0.883466
1187.000000	0.883235
1186.000000	0.882574
1185.000000	0.883176
1184.000000	0.883230
1183.000000	0.883169
1182.000000	0.883158
1181.000000	0.881584
1180.000000	0.881069
1179.000000	0.880240
1178.000000	0.879057
1177.000000	0.878632
1176.000000	0.879587
1175.000000	0.879391
1174.000000	0.879025
1173.000000	0.880193
1172.000000	0.880842
1171.000000	0.879756
1170.000000	0.878789
1169.000000	0.880626
1168.000000	0.879716
1167.000000	0.877389
1166.000000	0.877169
1165.000000	0.876646
1164.000000	0.875590
1163.000000	0.876360
1162.000000	0.876776
1161.000000	0.876027
1160.000000	0.877104
1159.000000	0.877938
1158.000000	0.877985
1157.000000	0.878619
1156.000000	0.878695
1155.000000	0.876278
1154.000000	0.874391
1153.000000	0.874130
1152.000000	0.873379
1151.000000	0.872484
1150.000000	0.872923
1149.000000	0.873356
1148.000000	0.872886
1147.000000	0.874704
1146.000000	0.874433
1145.000000	0.873648
1144.000000	0.873966
1143.000000	0.872918
1142.000000	0.871940
1141.000000	0.871777
1140.000000	0.872126
1139.000000	0.871091
1138.000000	0.870390
1137.000000	0.869809
1136.000000	0.869634
1135.000000	0.869237
1134.000000	0.870145
1133.000000	0.871202
1132.000000	0.871112
1131.000000	0.870229
1130.000000	0.869697
1129.000000	0.867367
1128.000000	0.866537
1127.000000	0.867544
1126.000000	0.867105
1125.000000	0.867393
1124.000000	0.868272
1123.000000	0.868927
1122.000000	0.867495
1121.000000	0.868654
1120.000000	0.869264
1119.000000	0.868209
1118.000000	0.867561
1117.000000	0.866598
1116.000000	0.865572
1115.000000	0.862859
1114.000000	0.864173
1113.000000	0.864100
1112.000000	0.863872
1111.000000	0.865181
1110.000000	0.866646
1109.000000	0.867484
1108.000000	0.866723
1107.000000	0.863933
1106.000000	0.862501
1105.000000	0.862151
1104.000000	0.861285
1103.000000	0.861521
1102.000000	0.860549
1101.000000	0.862205
1100.000000	0.862805
1099.000000	0.862153
1098.000000	0.860881
1097.000000	0.862427
1096.000000	0.861840
1095.000000	0.859901
1094.000000	0.860596
1093.000000	0.858636
1092.000000	0.858077
1091.000000	0.860022
1090.000000	0.860403
1089.000000	0.860663
1088.000000	0.861553
1087.000000	0.859006
1086.000000	0.857901
1085.000000	0.857751
1084.000000	0.858405
1083.000000	0.855409
1082.000000	0.855702
1081.000000	0.855438
1080.000000	0.858578
1079.000000	0.858295
1078.000000	0.856215
1077.000000	0.856470
1076.000000	0.856067
1075.000000	0.855732
1074.000000	0.854880
1073.000000	0.852656
1072.000000	0.853431
1071.000000	0.854500
1070.000000	0.854321
1069.000000	0.853091
1068.000000	0.854822
1067.000000	0.857845
1066.000000	0.854460
1065.000000	0.853436
1064.000000	0.854055
1063.000000	0.850695
1062.000000	0.851552
1061.000000	0.850622
1060.000000	0.852807
1059.000000	0.850793
1058.000000	0.851371
1057.000000	0.851265
1056.000000	0.850815
1055.000000	0.850719
1054.000000	0.852799
1053.000000	0.850116
1052.000000	0.848086
1051.000000	0.849832
1050.000000	0.849882
1049.000000	0.848934
1048.000000	0.846950
1047.000000	0.849980
1046.000000	0.848416
1045.000000	0.845286
1044.000000	0.849877
1043.000000	0.847643
1042.000000	0.844921
1041.000000	0.847316
1040.000000	0.845789
1039.000000	0.846576
1038.000000	0.847382
1037.000000	0.844825
1036.000000	0.847318
1035.000000	0.847105
1034.000000	0.853089
1033.000000	0.847945
1032.000000	0.842605
1031.000000	0.844917
1030.000000	0.843153
1029.000000	0.843381
1028.000000	0.842952
1027.000000	0.843801
1026.000000	0.843259
1025.000000	0.843254
1024.000000	0.845320
1023.000000	0.842338
1022.000000	0.841060
1021.000000	0.839626
1020.000000	0.838227
1019.000000	0.838235
1018.000000	0.841095
1017.000000	0.842472
1016.000000	0.842177
1015.000000	0.840446
1014.000000	0.841262
1013.000000	0.840525
1012.000000	0.842853
1011.000000	0.841451
1010.000000	0.838469
1009.000000	0.837563
1008.000000	0.837391
1007.000000	0.837431
1006.000000	0.835579
1005.000000	0.838346
1004.000000	0.838660
1003.000000	0.838813
1002.000000	0.838827
1001.000000	0.834625
1000.000000	0.836388
999.000000	0.833873
998.000000	0.834001
997.000000	0.833450
996.000000	0.833508
995.000000	0.835848
994.000000	0.838675
993.000000	0.836190
992.000000	0.838452
991.000000	0.835914
990.000000	0.835000
989.000000	0.829670
988.000000	0.831094
987.000000	0.829153
986.000000	0.829042
985.000000	0.833655
984.000000	0.832254
983.000000	0.835155
982.000000	0.834379
981.000000	0.833677
980.000000	0.831804
979.000000	0.831261
978.000000	0.831032
977.000000	0.827771
976.000000	0.828589
975.000000	0.834407
974.000000	0.830505
973.000000	0.828943
972.000000	0.830407
971.000000	0.831376
970.000000	0.827866
969.000000	0.826873
968.000000	0.830000
967.000000	0.826536
966.000000	0.826950
965.000000	0.826382
964.000000	0.824487
963.000000	0.825947
962.000000	0.827789
961.000000	0.829278
960.000000	0.827252
959.000000	0.826181
958.000000	0.826381
957.000000	0.820318
956.000000	0.823286
955.000000	0.824813
954.000000	0.824894
953.000000	0.822760
952.000000	0.825006
951.000000	0.824575
950.000000	0.823170
949.000000	0.824658
948.000000	0.823081
947.000000	0.819245
946.000000	0.819842
945.000000	0.819778
944.000000	0.820679
943.000000	0.819078
942.000000	0.823625
941.000000	0.826944
940.000000	0.823229
939.000000	0.821286
938.000000	0.819151
937.000000	0.813967
936.000000	0.814405
935.000000	0.820914
934.000000	0.819694
933.000000	0.819463
932.000000	0.823266
931.000000	0.821316
930.000000	0.823561
929.000000	0.819784
928.000000	0.814089
927.000000	0.812033
926.000000	0.814816
925.000000	0.815298
924.000000	0.810280
923.000000	0.813817
922.000000	0.816265
921.000000	0.813987
920.000000	0.814909
919.000000	0.813997
918.000000	0.809352
917.000000	0.803565
916.000000	0.808035
915.000000	0.814342
914.000000	0.813293
913.000000	0.816607
912.000000	0.819141
911.000000	0.816322
910.000000	0.811540
909.000000	0.812023
908.000000	0.817672
907.000000	0.807837
906.000000	0.802711
905.000000	0.809210
904.000000	0.808506
903.000000	0.807728
902.000000	0.813873
901.000000	0.813707
900.000000	0.805111
899.000000	0.801466
898.000000	0.804938
897.000000	0.797720
896.000000	0.799450
895.000000	0.801892
894.000000	0.805520
893.000000	0.812179
892.000000	0.807658
891.000000	0.808578
890.000000	0.795641
889.000000	0.791532
888.000000	0.793803
887.000000	0.789845
886.000000	0.796204
885.000000	0.806799
884.000000	0.808463
883.000000	0.808479
882.000000	0.817050
881.000000	0.814367
880.000000	0.798416
879.000000	0.795393
878.000000	0.803741
877.000000	0.808023
876.000000	0.796078
875.000000	0.801320
874.000000	0.802890
873.000000	0.800617
872.000000	0.793085
871.000000	0.798577
870.000000	0.785289
869.000000	0.793672
868.000000	0.787599
867.000000	0.784048
866.000000	0.819030
865.000000	0.812206
864.000000	0.806678
863.000000	0.795006
862.000000	0.795872
861.000000	0.822298
860.000000	0.840045
859.000000	0.839479
858.000000	0.842339
857.000000	0.830807
856.000000	0.833817
855.000000	0.831275
854.000000	0.827782
853.000000	0.830276
852.000000	0.828447
851.000000	0.828578
850.000000	0.830044
849.000000	0.828024
848.000000	0.829540
847.000000	0.830508
846.000000	0.826894
845.000000	0.826579
844.000000	0.823413
843.000000	0.826006
842.000000	0.824967
841.000000	0.822736
840.000000	0.817786
839.000000	0.819779
838.000000	0.819888
837.000000	0.819988
836.000000	0.816253
835.000000	0.817016
834.000000	0.816785
833.000000	0.816828
832.000000	0.814156
831.000000	0.814950
830.000000	0.813888
829.000000	0.814743
828.000000	0.813885
827.000000	0.813844
826.000000	0.812912
825.000000	0.812532
824.000000	0.814333
823.000000	0.813910
822.000000	0.809536
821.000000	0.807418
820.000000	0.809138
819.000000	0.810338
818.000000	0.807228
817.000000	0.808211
816.000000	0.808315
815.000000	0.809556
814.000000	0.807487
813.000000	0.807473
812.000000	0.806132
811.000000	0.807397
810.000000	0.804665
809.000000	0.804568
808.000000	0.804035
807.000000	0.804588
806.000000	0.804534
805.000000	0.805034
804.000000	0.802133
803.000000	0.803115
802.000000	0.804258
801.000000	0.802878
800.000000	0.802528
799.000000	0.800807
798.000000	0.802046
797.000000	0.801738
796.000000	0.798788
795.000000	0.800530
794.000000	0.799036
793.000000	0.800920
792.000000	0.798149
791.000000	0.799636
790.000000	0.798024
789.000000	0.797655
788.000000	0.798988
787.000000	0.798179
786.000000	0.796897
785.000000	0.796293
784.000000	0.795179
783.000000	0.795457
782.000000	0.793020
781.000000	0.792241
780.000000	0.795195
779.000000	0.794383
778.000000	0.792414
777.000000	0.793569
776.000000	0.791741
775.000000	0.790808
774.000000	0.791216
773.000000	0.792433
772.000000	0.791964
771.000000	0.789960
770.000000	0.789556
769.000000	0.790456
768.000000	0.790745
767.000000	0.789554
766.000000	0.789385
765.000000	0.787695
764.000000	0.786557
763.000000	0.788117
762.000000	0.787670
761.000000	0.786796
760.000000	0.786272
759.000000	0.786014
758.000000	0.785125
757.000000	0.783627
756.000000	0.783103
755.000000	0.783977
754.000000	0.783130
753.000000	0.783158
752.000000	0.783467
751.000000	0.782241
750.000000	0.782539
749.000000	0.782420
748.000000	0.782340
747.000000	0.780653
746.000000	0.778989
745.000000	0.779731
744.000000	0.779547
743.000000	0.777742
742.000000	0.777372
741.000000	0.778518
740.000000	0.777025
739.000000	0.775836
738.000000	0.776871
737.000000	0.774752
736.000000	0.775315
735.000000	0.774231
734.000000	0.775210
733.000000	0.774949
732.000000	0.773214
731.000000	0.772732
730.000000	0.772466
729.000000	0.771511
728.000000	0.772240
727.000000	0.770914
726.000000	0.770588
725.000000	0.770028
724.000000	0.770069
723.000000	0.769729
722.000000	0.768755
721.000000	0.767931
720.000000	0.768764
719.000000	0.767526
718.000000	0.767578
717.000000	0.767094
716.000000	0.766152
715.000000	0.765966
714.000000	0.765124
713.000000	0.764624
712.000000	0.763653
711.000000	0.763601
710.000000	0.763179
709.000000	0.763033
708.000000	0.762987
707.000000	0.762467
706.000000	0.762453
705.000000	0.760824
704.000000	0.760816
703.000000	0.760327
702.000000	0.759516
701.000000	0.758217
700.000000	0.757927
699.000000	0.758183
698.000000	0.757803
697.000000	0.756985
696.000000	0.755573
695.000000	0.755233
694.000000	0.755413
693.000000	0.754988
692.000000	0.754425
691.000000	0.753873
690.000000	0.752870
689.000000	0.752798
688.000000	0.752488
687.000000	0.751823
686.000000	0.751465
685.000000	0.751404
684.000000	0.750932
683.000000	0.749761
682.000000	0.750088
681.000000	0.749693
680.000000	0.748460
679.000000	0.747979
678.000000	0.747198
677.000000	0.746100
676.000000	0.745879
675.000000	0.745830
674.000000	0.745744
673.000000	0.744962
672.000000	0.744359
671.000000	0.744392
670.000000	0.743838
669.000000	0.743079
668.000000	0.742376
667.000000	0.741838
666.000000	0.741409
665.000000	0.740828
664.000000	0.739980
663.000000	0.739585
662.000000	0.739699
661.000000	0.739156
660.000000	0.738262
659.000000	0.737839
658.000000	0.736800
657.000000	0.736023
656.000000	0.735969
655.000000	0.735304
654.000000	0.734826
653.000000	0.734621
652.000000	0.734229
651.000000	0.733746
650.000000	0.733270
649.000000	0.732601
648.000000	0.732078
647.000000	0.731493
646.000000	0.730538
645.000000	0.730177
644.000000	0.729788
643.000000	0.729244
642.000000	0.729048
641.000000	0.728417
640.000000	0.727321
639.000000	0.726575
638.000000	0.726013
637.000000	0.725572
636.000000	0.725108
635.000000	0.724461
634.000000	0.723885
633.000000	0.723495
632.000000	0.722922
631.000000	0.722389
630.000000	0.721987
629.000000	0.721773
628.000000	0.721163
627.000000	0.720808
626.000000	0.719918
625.000000	0.719236
624.000000	0.718754
623.000000	0.717609
622.000000	0.716962
621.000000	0.717312
620.000000	0.716775
619.000000	0.716080
618.000000	0.715364
617.000000	0.714409
616.000000	0.714077
615.000000	0.713919
614.000000	0.713019
613.000000	0.712451
612.000000	0.711913
611.000000	0.711478
610.000000	0.711160
609.000000	0.710456
608.000000	0.709952
607.000000	0.709606
606.000000	0.709059
605.000000	0.708543
604.000000	0.708470
603.000000	0.708122
602.000000	0.707864
601.000000	0.707475
600.000000	0.707166
599.000000	0.706533
598.000000	0.706738
597.000000	0.706709
596.000000	0.707131
595.000000	0.706965
594.000000	0.706847
593.000000	0.707093
592.000000	0.707707
591.000000	0.708643
590.000000	0.709505
589.000000	0.710598
588.000000	0.711239
587.000000	0.713154
586.000000	0.713884
585.000000	0.715067
584.000000	0.716617
583.000000	0.717641
582.000000	0.719262
581.000000	0.720492
580.000000	0.720598
579.000000	0.721850
578.000000	0.722762
577.000000	0.723809
576.000000	0.723707
575.000000	0.723455
574.000000	0.723930
573.000000	0.724407
572.000000	0.724418
571.000000	0.723946
570.000000	0.723322
569.000000	0.722837
568.000000	0.722630
567.000000	0.722042
566.000000	0.721550
565.000000	0.720961
564.000000	0.720734
563.000000	0.720011
562.000000	0.719559
561.000000	0.719243
560.000000	0.718978
559.000000	0.717884
558.000000	0.717540
557.000000	0.716161
556.000000	0.715946
555.000000	0.714831
554.000000	0.713903
553.000000	0.712909
552.000000	0.712545
551.000000	0.711576
550.000000	0.710691
549.000000	0.709819
548.000000	0.709253
547.000000	0.708655
546.000000	0.707903
545.000000	0.706726
544.000000	0.706105
543.000000	0.705385
542.000000	0.703778
541.000000	0.703309
540.000000	0.703084
539.000000	0.702133
538.000000	0.701633
537.000000	0.700696
536.000000	0.700219
535.000000	0.700144
534.000000	0.699335
533.000000	0.698828
532.000000	0.697913
531.000000	0.697047
530.000000	0.696937
529.000000	0.696171
528.000000	0.695313
527.000000	0.695028
526.000000	0.694573
525.000000	0.693486
524.000000	0.692637
523.000000	0.692042
522.000000	0.691113
521.000000	0.690457
520.000000	0.689829
519.000000	0.689290
518.000000	0.687758
517.000000	0.687001
516.000000	0.686141
515.000000	0.685180
514.000000	0.684031
513.000000	0.683410
512.000000	0.681966
511.000000	0.680668
510.000000	0.679937
509.000000	0.679583
508.000000	0.678420
507.000000	0.677325
506.000000	0.677981
505.000000	0.676254
504.000000	0.676573
503.000000	0.677090
502.000000	0.677708
501.000000	0.678263
500.000000	0.679486
499.000000	0.680069
498.000000	0.681626
497.000000	0.683872
496.000000	0.685310
495.000000	0.687386
494.000000	0.689316
493.000000	0.691889
492.000000	0.693653
491.000000	0.696276
490.000000	0.697470
489.000000	0.699602
488.000000	0.700863
487.000000	0.702438
486.000000	0.704091
485.000000	0.705567
484.000000	0.705451
483.000000	0.706563
482.000000	0.706574
481.000000	0.707134
480.000000	0.707270
479.000000	0.706721
478.000000	0.706048
477.000000	0.705307
476.000000	0.705010
475.000000	0.704051
474.000000	0.703283
473.000000	0.702627
472.000000	0.701398
471.000000	0.700389
470.000000	0.699006
469.000000	0.697776
468.000000	0.696702
467.000000	0.695151
466.000000	0.694400
465.000000	0.693544
464.000000	0.691425
463.000000	0.690618
462.000000	0.689327
461.000000	0.688615
460.000000	0.687314
459.000000	0.686855
458.000000	0.685879
457.000000	0.684893
456.000000	0.684057
455.000000	0.683124
454.000000	0.682356
453.000000	0.681743
452.000000	0.680407
451.000000	0.679735
450.000000	0.678595
449.000000	0.678311
448.000000	0.677628
447.000000	0.676607
446.000000	0.675792
445.000000	0.675172
444.000000	0.674830
443.000000	0.674157
442.000000	0.672770
441.000000	0.671721
440.000000	0.670594
439.000000	0.670064
438.000000	0.668347
437.000000	0.667206
436.000000	0.665675
435.000000	0.664687
434.000000	0.664235
433.000000	0.662571
432.000000	0.660890
431.000000	0.659885
430.000000	0.658157
429.000000	0.657129
428.000000	0.656534
427.000000	0.655353
426.000000	0.654415
425.000000	0.653086
424.000000	0.652018
423.000000	0.650682
422.000000	0.649551
421.000000	0.648346
420.000000	0.647396
419.000000	0.646339
418.000000	0.645571
417.000000	0.644200
416.000000	0.642938
415.000000	0.642404
414.000000	0.641107
413.000000	0.639941
412.000000	0.639288
411.000000	0.638940
410.000000	0.639288
409.000000	0.638728
408.000000	0.638711
407.000000	0.639809
406.000000	0.641559
405.000000	0.644184
404.000000	0.646768
403.000000	0.650518
402.000000	0.655252
401.000000	0.660811
400.000000	0.668104
399.000000	0.675957
398.000000	0.684820
397.000000	0.694846
396.000000	0.706826
395.000000	0.720213
394.000000	0.734143
393.000000	0.748947
392.000000	0.764930
391.000000	0.781767
390.000000	0.798489
389.000000	0.815051
388.000000	0.832676
387.000000	0.850309
386.000000	0.866641
385.000000	0.882471
384.000000	0.898582
383.000000	0.913597
382.000000	0.926810
381.000000	0.940458
380.000000	0.952790
379.000000	0.965331
378.000000	0.982568
377.000000	0.997111
376.000000	1.007539
375.000000	1.018158
374.000000	1.028242
373.000000	1.038253
372.000000	1.047422
371.000000	1.056479
370.000000	1.066051
369.000000	1.073705
368.000000	1.082649
367.000000	1.090526
366.000000	1.098588
365.000000	1.106191
364.000000	1.112636
363.000000	1.120102
362.000000	1.126858
361.000000	1.133986
360.000000	1.140395
359.000000	1.146893
358.000000	1.154543
357.000000	1.159572
356.000000	1.165597
355.000000	1.171323
354.000000	1.175718
353.000000	1.180660
352.000000	1.184418
351.000000	1.188384
350.000000	1.191443
349.000000	1.194520
348.000000	1.198025
347.000000	1.202643
346.000000	1.202660
345.000000	1.203283
344.000000	1.206166
343.000000	1.209888
342.000000	1.210161
341.000000	1.211726
340.000000	1.211079
339.000000	1.210218
338.000000	1.210988
337.000000	1.210190
336.000000	1.210178
335.000000	1.209425
334.000000	1.208060
333.000000	1.208430
332.000000	1.206929
331.000000	1.203431
330.000000	1.202482
329.000000	1.200140
328.000000	1.200714
327.000000	1.199996
326.000000	1.196279
325.000000	1.194583
324.000000	1.193214
323.000000	1.191567
322.000000	1.188068
321.000000	1.187503
320.000000	1.187062
319.000000	1.193553
318.000000	1.197169
317.000000	1.194178
316.000000	1.193295
315.000000	1.188691
314.000000	1.186275
313.000000	1.186492
312.000000	1.183686
311.000000	1.182935
310.000000	1.183967
309.000000	1.181323
308.000000	1.177408
307.000000	1.177313
306.000000	1.178054
305.000000	1.177099
304.000000	1.179056
303.000000	1.178954
302.000000	1.177978
301.000000	1.179659
300.000000	1.182017
299.000000	1.178856
298.000000	1.183002
297.000000	1.181111
296.000000	1.180155
295.000000	1.181448
294.000000	1.182238
293.000000	1.182507
292.000000	1.183272
291.000000	1.182889
290.000000	1.181304
289.000000	1.181779
288.000000	1.182629
287.000000	1.181648
286.000000	1.182142
285.000000	1.180853
284.000000	1.180324
283.000000	1.180177
282.000000	1.184146
281.000000	1.181919
280.000000	1.180682
279.000000	1.180037
278.000000	1.178553
277.000000	1.178188
276.000000	1.176164
275.000000	1.176250
274.000000	1.174826
273.000000	1.172480
272.000000	1.173917
271.000000	1.173291
270.000000	1.174945
269.000000	1.175452
268.000000	1.173086
267.000000	1.173773
266.000000	1.170959
265.000000	1.170921
264.000000	1.172525
263.000000	1.170122
262.000000	1.167974
261.000000	1.167977
260.000000	1.165529
259.000000	1.166179
258.000000	1.162507
257.000000	1.167166
256.000000	1.165170
255.000000	1.165583
254.000000	1.164726
253.000000	1.164334
252.000000	1.163573
251.000000	1.162052
250.000000	1.162019
249.000000	1.162150
248.000000	1.162158
247.000000	1.162050
246.000000	1.160377
245.000000	1.158000
244.000000	1.158437
243.000000	1.159399
242.000000	1.156233
241.000000	1.155433
240.000000	1.153407
239.000000	1.153057
238.000000	1.152817
237.000000	1.152988
236.000000	1.149322
235.000000	1.148571
234.000000	1.147425
233.000000	1.144991
232.000000	1.144176
231.000000	1.146063
230.000000	1.142321
229.000000	1.141323
228.000000	1.139456
227.000000	1.138972
226.000000	1.135568
225.000000	1.134270
224.000000	1.133003
223.000000	1.129652
222.000000	1.129782
221.000000	1.129790
220.000000	1.127320
219.000000	1.123489
218.000000	1.124298
217.000000	1.121431
216.000000	1.118008
215.000000	1.116221
214.000000	1.116129
213.000000	1.115552
212.000000	1.112497
211.000000	1.107625
210.000000	1.106321
209.000000	1.105860
208.000000	1.098974
207.000000	1.099861
206.000000	1.097173
205.000000	1.093216
204.000000	1.086363
203.000000	1.083569
202.000000	1.078226
201.000000	1.081806
200.000000	1.069733
199.000000	1.062409
198.000000	1.058686
197.000000	1.053953
196.000000	1.044342
195.000000	1.032429
194.000000	1.023195
193.000000	0.994590
192.000000	0.974922
191.000000	0.944834
190.000000	0.811536
189.000000	0.639904
188.000000	0.386546
187.000000	0.085719
186.000000	0.006047
185.000000	0.000309
184.000000	0.013028
183.000000	0.014610
182.000000	-0.000754
181.000000	-0.002228
180.000000	0.001527
179.000000	-0.007747
178.000000	-0.000060
177.000000	0.005472
176.000000	-0.005731
175.000000	0.031351
