PE UV       SUBTECH     SPECTRUM    ASCII       PEDS        4.00        
   -1
Sample9.Sample.Raw.ASC
25/05/30
12:52:04.00
25/06/06
09:00:45.00
tom jordan
DDQ R3
175.000000
1
Lambda 1050
1050L1807051
PerkinElmer UV WinLab 6.4.0.973 / 2.02.06 Lambda 900 UV/VIS/NIR, Jan 28 2016 16:58:34

0
0
3350
0
0
UV/VIS
1
1
1
RBeamAtt,SBeamAtt,150mm sphere / downward view, WB InGaAs Detector
0
0
0
0
Program
Program
3350
3350
3350
0
1
 
 
 
0
 
860.8
319.2
860.8
Front
100
 
S:100 R:100
0
0
0
0
 
0
 
 
 
0
 
 
0
0
0
0
0
 
 
 
 
0
0


0
0
#HDR
-1
-1
#GR
nm
%T
1.0
0.0
2000.000000
-1.000000
1826
8
104.143459
6.188038
#DATA
2000.000000	9.680928
1999.000000	9.816123
1998.000000	10.031549
1997.000000	9.849541
1996.000000	9.999655
1995.000000	10.023606
1994.000000	10.034206
1993.000000	9.913271
1992.000000	9.997352
1991.000000	9.837279
1990.000000	9.869633
1989.000000	10.078526
1988.000000	9.730250
1987.000000	9.755960
1986.000000	10.060858
1985.000000	9.944890
1984.000000	10.005159
1983.000000	9.824806
1982.000000	10.002441
1981.000000	9.991346
1980.000000	10.059653
1979.000000	9.984102
1978.000000	9.964351
1977.000000	9.996593
1976.000000	9.826571
1975.000000	10.030048
1974.000000	9.989782
1973.000000	9.997813
1972.000000	9.863885
1971.000000	9.779418
1970.000000	10.124813
1969.000000	9.841879
1968.000000	9.872406
1967.000000	9.707312
1966.000000	9.921858
1965.000000	9.877272
1964.000000	10.049281
1963.000000	9.989391
1962.000000	10.049628
1961.000000	10.148667
1960.000000	10.032150
1959.000000	10.077853
1958.000000	9.805912
1957.000000	9.973647
1956.000000	10.159001
1955.000000	9.934934
1954.000000	9.803248
1953.000000	9.963685
1952.000000	10.035061
1951.000000	9.885212
1950.000000	9.833112
1949.000000	9.967265
1948.000000	10.023722
1947.000000	9.998734
1946.000000	9.999770
1945.000000	9.985366
1944.000000	10.187180
1943.000000	10.308014
1942.000000	10.133746
1941.000000	9.814112
1940.000000	10.133979
1939.000000	10.075718
1938.000000	10.188166
1937.000000	10.301821
1936.000000	10.228124
1935.000000	10.194736
1934.000000	10.279145
1933.000000	10.617542
1932.000000	10.120384
1931.000000	10.051040
1930.000000	10.027669
1929.000000	10.362081
1928.000000	10.408520
1927.000000	9.892954
1926.000000	10.071589
1925.000000	10.241439
1924.000000	10.000622
1923.000000	10.118241
1922.000000	10.355021
1921.000000	10.547171
1920.000000	10.188846
1919.000000	10.141262
1918.000000	10.083981
1917.000000	10.396807
1916.000000	10.165436
1915.000000	10.029493
1914.000000	10.235263
1913.000000	10.191333
1912.000000	10.280826
1911.000000	10.021645
1910.000000	10.203402
1909.000000	10.347013
1908.000000	10.411828
1907.000000	10.170235
1906.000000	10.093063
1905.000000	10.364921
1904.000000	10.153926
1903.000000	10.156896
1902.000000	10.243869
1901.000000	10.278459
1900.000000	10.295442
1899.000000	10.124370
1898.000000	10.487235
1897.000000	10.552734
1896.000000	10.392739
1895.000000	10.227065
1894.000000	10.052174
1893.000000	9.949929
1892.000000	10.113512
1891.000000	10.212851
1890.000000	10.256496
1889.000000	10.524416
1888.000000	10.492670
1887.000000	10.387356
1886.000000	10.281489
1885.000000	10.201053
1884.000000	10.179654
1883.000000	10.078270
1882.000000	10.255952
1881.000000	10.438065
1880.000000	10.396281
1879.000000	10.192835
1878.000000	10.321647
1877.000000	10.385442
1876.000000	10.155142
1875.000000	10.297031
1874.000000	10.391375
1873.000000	10.356285
1872.000000	10.104411
1871.000000	10.211887
1870.000000	10.462826
1869.000000	10.455529
1868.000000	10.446168
1867.000000	10.193938
1866.000000	10.259637
1865.000000	10.287006
1864.000000	10.225416
1863.000000	10.296414
1862.000000	10.233378
1861.000000	10.216685
1860.000000	10.108576
1859.000000	10.229797
1858.000000	10.312453
1857.000000	10.505482
1856.000000	10.524997
1855.000000	10.418159
1854.000000	10.467983
1853.000000	10.163821
1852.000000	10.177615
1851.000000	10.317845
1850.000000	10.366473
1849.000000	10.284140
1848.000000	10.371749
1847.000000	10.429897
1846.000000	10.314116
1845.000000	10.224922
1844.000000	10.218896
1843.000000	10.203801
1842.000000	10.259047
1841.000000	10.437921
1840.000000	10.506740
1839.000000	10.403369
1838.000000	10.387762
1837.000000	10.258503
1836.000000	10.294281
1835.000000	10.360388
1834.000000	10.228737
1833.000000	10.297102
1832.000000	10.247289
1831.000000	10.216003
1830.000000	10.113605
1829.000000	10.175576
1828.000000	10.276850
1827.000000	10.216944
1826.000000	10.315683
1825.000000	10.258716
1824.000000	10.297220
1823.000000	10.193891
1822.000000	10.304502
1821.000000	10.221744
1820.000000	10.090879
1819.000000	10.138904
1818.000000	10.175740
1817.000000	10.409048
1816.000000	10.188682
1815.000000	10.113605
1814.000000	10.292550
1813.000000	10.184882
1812.000000	10.163236
1811.000000	10.086372
1810.000000	10.329612
1809.000000	10.249932
1808.000000	10.270060
1807.000000	10.234933
1806.000000	10.147031
1805.000000	10.235216
1804.000000	10.245237
1803.000000	10.246699
1802.000000	10.169041
1801.000000	10.298548
1800.000000	10.313736
1799.000000	10.363131
1798.000000	10.315470
1797.000000	10.316800
1796.000000	10.269753
1795.000000	10.263559
1794.000000	10.359791
1793.000000	10.364778
1792.000000	10.255032
1791.000000	10.241864
1790.000000	10.320744
1789.000000	10.443811
1788.000000	10.341416
1787.000000	10.371606
1786.000000	10.296272
1785.000000	10.310340
1784.000000	10.433259
1783.000000	10.330872
1782.000000	10.360531
1781.000000	10.368311
1780.000000	10.486028
1779.000000	10.229349
1778.000000	10.330302
1777.000000	10.285798
1776.000000	10.371152
1775.000000	10.492452
1774.000000	10.527470
1773.000000	10.551131
1772.000000	10.299686
1771.000000	10.246298
1770.000000	10.442897
1769.000000	10.423438
1768.000000	10.403034
1767.000000	10.542364
1766.000000	10.502532
1765.000000	10.560829
1764.000000	10.441575
1763.000000	10.485400
1762.000000	10.490423
1761.000000	10.604495
1760.000000	10.450811
1759.000000	10.372728
1758.000000	10.472660
1757.000000	10.277039
1756.000000	10.630728
1755.000000	10.318273
1754.000000	10.484193
1753.000000	10.458177
1752.000000	10.495569
1751.000000	10.625809
1750.000000	10.473046
1749.000000	10.697148
1748.000000	10.543723
1747.000000	10.474372
1746.000000	10.430785
1745.000000	10.489867
1744.000000	10.612312
1743.000000	10.445470
1742.000000	10.478135
1741.000000	10.469984
1740.000000	10.532998
1739.000000	10.500718
1738.000000	10.479583
1737.000000	10.562823
1736.000000	10.414562
1735.000000	10.598441
1734.000000	10.485883
1733.000000	10.494216
1732.000000	10.459959
1731.000000	10.529821
1730.000000	10.587807
1729.000000	10.513057
1728.000000	10.483203
1727.000000	10.540179
1726.000000	10.657418
1725.000000	10.568516
1724.000000	10.578352
1723.000000	10.646454
1722.000000	10.584589
1721.000000	10.629896
1720.000000	10.549746
1719.000000	10.632441
1718.000000	10.602664
1717.000000	10.523810
1716.000000	10.562142
1715.000000	10.584028
1714.000000	10.516325
1713.000000	10.525264
1712.000000	10.601883
1711.000000	10.495618
1710.000000	10.494289
1709.000000	10.584808
1708.000000	10.636923
1707.000000	10.597246
1706.000000	10.583687
1705.000000	10.682798
1704.000000	10.602591
1703.000000	10.607035
1702.000000	10.650991
1701.000000	10.630728
1700.000000	10.622188
1699.000000	10.618471
1698.000000	10.631242
1697.000000	10.577840
1696.000000	10.623950
1695.000000	10.652634
1694.000000	10.626861
1693.000000	10.635894
1692.000000	10.627864
1691.000000	10.678248
1690.000000	10.700079
1689.000000	10.696532
1688.000000	10.673995
1687.000000	10.584613
1686.000000	10.692666
1685.000000	10.706734
1684.000000	10.655578
1683.000000	10.643685
1682.000000	10.676576
1681.000000	10.634253
1680.000000	10.615831
1679.000000	10.731143
1678.000000	10.714700
1677.000000	10.735468
1676.000000	10.701139
1675.000000	10.714502
1674.000000	10.714749
1673.000000	10.710062
1672.000000	10.773629
1671.000000	10.727512
1670.000000	10.654253
1669.000000	10.739721
1668.000000	10.711271
1667.000000	10.653762
1666.000000	10.685405
1665.000000	10.743332
1664.000000	10.785046
1663.000000	10.715094
1662.000000	10.773976
1661.000000	10.730674
1660.000000	10.748553
1659.000000	10.715588
1658.000000	10.692764
1657.000000	10.728599
1656.000000	10.658375
1655.000000	10.654694
1654.000000	10.723536
1653.000000	10.796873
1652.000000	10.846809
1651.000000	10.795978
1650.000000	10.720079
1649.000000	10.686906
1648.000000	10.712307
1647.000000	10.684618
1646.000000	10.738682
1645.000000	10.818001
1644.000000	10.734554
1643.000000	10.749617
1642.000000	10.787505
1641.000000	10.810356
1640.000000	10.819022
1639.000000	10.825301
1638.000000	10.898181
1637.000000	10.880228
1636.000000	10.808688
1635.000000	10.805080
1634.000000	10.820268
1633.000000	10.823382
1632.000000	10.833356
1631.000000	10.818848
1630.000000	10.826648
1629.000000	10.878725
1628.000000	10.812148
1627.000000	10.785096
1626.000000	10.804956
1625.000000	10.841066
1624.000000	10.909629
1623.000000	10.849532
1622.000000	10.858604
1621.000000	10.904205
1620.000000	10.835202
1619.000000	10.817303
1618.000000	10.876546
1617.000000	10.884989
1616.000000	10.841640
1615.000000	10.883786
1614.000000	10.867409
1613.000000	10.910232
1612.000000	10.923127
1611.000000	10.881305
1610.000000	10.910057
1609.000000	10.926951
1608.000000	10.977843
1607.000000	10.978626
1606.000000	10.925442
1605.000000	10.927127
1604.000000	10.939387
1603.000000	11.022624
1602.000000	10.958497
1601.000000	10.971879
1600.000000	10.989805
1599.000000	10.932538
1598.000000	10.987275
1597.000000	10.966878
1596.000000	10.960163
1595.000000	10.872565
1594.000000	10.885365
1593.000000	10.956201
1592.000000	10.913825
1591.000000	10.998210
1590.000000	10.967307
1589.000000	10.953149
1588.000000	10.956252
1587.000000	10.914428
1586.000000	11.032857
1585.000000	11.039261
1584.000000	11.011843
1583.000000	10.981685
1582.000000	10.943746
1581.000000	10.999805
1580.000000	10.981812
1579.000000	10.992716
1578.000000	10.984973
1577.000000	11.006747
1576.000000	11.043608
1575.000000	11.068531
1574.000000	11.056865
1573.000000	10.975113
1572.000000	11.060761
1571.000000	11.073783
1570.000000	11.101253
1569.000000	11.097419
1568.000000	11.143587
1567.000000	11.043049
1566.000000	11.025696
1565.000000	11.049535
1564.000000	11.084165
1563.000000	11.012324
1562.000000	11.104244
1561.000000	11.035881
1560.000000	11.136225
1559.000000	11.090369
1558.000000	11.129765
1557.000000	11.215638
1556.000000	11.093178
1555.000000	11.156475
1554.000000	11.072533
1553.000000	11.116037
1552.000000	11.150517
1551.000000	11.191260
1550.000000	11.110612
1549.000000	11.114297
1548.000000	11.255687
1547.000000	11.109692
1546.000000	11.113632
1545.000000	11.141560
1544.000000	11.134046
1543.000000	11.177199
1542.000000	11.159918
1541.000000	11.144459
1540.000000	11.186185
1539.000000	11.117266
1538.000000	11.165367
1537.000000	11.247811
1536.000000	11.259057
1535.000000	11.156372
1534.000000	11.206861
1533.000000	11.228894
1532.000000	11.190384
1531.000000	11.170073
1530.000000	11.262816
1529.000000	11.318373
1528.000000	11.234584
1527.000000	11.331463
1526.000000	11.265384
1525.000000	11.257994
1524.000000	11.308135
1523.000000	11.262116
1522.000000	11.252474
1521.000000	11.147051
1520.000000	11.248614
1519.000000	11.241907
1518.000000	11.252862
1517.000000	11.273169
1516.000000	11.285349
1515.000000	11.377164
1514.000000	11.298896
1513.000000	11.225999
1512.000000	11.273272
1511.000000	11.265125
1510.000000	11.278050
1509.000000	11.370983
1508.000000	11.300093
1507.000000	11.244548
1506.000000	11.271871
1505.000000	11.328646
1504.000000	11.322517
1503.000000	11.300327
1502.000000	11.337074
1501.000000	11.401868
1500.000000	11.426126
1499.000000	11.337074
1498.000000	11.410298
1497.000000	11.352643
1496.000000	11.416921
1495.000000	11.341252
1494.000000	11.409642
1493.000000	11.409536
1492.000000	11.418446
1491.000000	11.466662
1490.000000	11.428547
1489.000000	11.423206
1488.000000	11.447905
1487.000000	11.445980
1486.000000	11.472076
1485.000000	11.443899
1484.000000	11.489602
1483.000000	11.420076
1482.000000	11.429020
1481.000000	11.406962
1480.000000	11.453943
1479.000000	11.455973
1478.000000	11.408275
1477.000000	11.514657
1476.000000	11.460248
1475.000000	11.427257
1474.000000	11.506759
1473.000000	11.494736
1472.000000	11.478761
1471.000000	11.512987
1470.000000	11.622030
1469.000000	11.576039
1468.000000	11.554895
1467.000000	11.482250
1466.000000	11.501461
1465.000000	11.493545
1464.000000	11.495636
1463.000000	11.587720
1462.000000	11.544098
1461.000000	11.511370
1460.000000	11.529541
1459.000000	11.495980
1458.000000	11.471178
1457.000000	11.530602
1456.000000	11.643539
1455.000000	11.568898
1454.000000	11.542530
1453.000000	11.564291
1452.000000	11.622512
1451.000000	11.623395
1450.000000	11.548804
1449.000000	11.612213
1448.000000	11.659636
1447.000000	11.595567
1446.000000	11.560723
1445.000000	11.573801
1444.000000	11.637213
1443.000000	11.609032
1442.000000	11.584919
1441.000000	11.591910
1440.000000	11.615770
1439.000000	11.667532
1438.000000	11.692167
1437.000000	11.690417
1436.000000	11.650056
1435.000000	11.690955
1434.000000	11.692974
1433.000000	11.688990
1432.000000	11.714695
1431.000000	11.724518
1430.000000	11.738727
1429.000000	11.734997
1428.000000	11.722305
1427.000000	11.731350
1426.000000	11.728433
1425.000000	11.687887
1424.000000	11.670649
1423.000000	11.734295
1422.000000	11.724626
1421.000000	11.727839
1420.000000	11.761372
1419.000000	11.793562
1418.000000	11.758421
1417.000000	11.705797
1416.000000	11.726786
1415.000000	11.780752
1414.000000	11.804892
1413.000000	11.810601
1412.000000	11.801413
1411.000000	11.740944
1410.000000	11.747298
1409.000000	11.787589
1408.000000	11.751546
1407.000000	11.777822
1406.000000	11.814599
1405.000000	11.781430
1404.000000	11.777144
1403.000000	11.791987
1402.000000	11.810628
1401.000000	11.846580
1400.000000	11.874300
1399.000000	11.864215
1398.000000	11.829653
1397.000000	11.832377
1396.000000	11.886610
1395.000000	11.896713
1394.000000	11.862166
1393.000000	11.886199
1392.000000	11.926335
1391.000000	11.957875
1390.000000	11.909184
1389.000000	11.853265
1388.000000	11.861893
1387.000000	11.877827
1386.000000	11.906360
1385.000000	11.911021
1384.000000	11.888444
1383.000000	11.883189
1382.000000	11.888991
1381.000000	11.915794
1380.000000	11.889566
1379.000000	11.950195
1378.000000	11.955424
1377.000000	11.936115
1376.000000	11.976171
1375.000000	11.986406
1374.000000	11.991900
1373.000000	12.005493
1372.000000	11.982543
1371.000000	11.953525
1370.000000	12.030869
1369.000000	12.024250
1368.000000	12.024222
1367.000000	12.034332
1366.000000	12.060186
1365.000000	12.048584
1364.000000	12.016915
1363.000000	12.054050
1362.000000	12.043231
1361.000000	11.969197
1360.000000	12.030980
1359.000000	12.057132
1358.000000	12.047807
1357.000000	12.066852
1356.000000	12.092191
1355.000000	12.092163
1354.000000	12.147894
1353.000000	12.108156
1352.000000	12.059964
1351.000000	12.043258
1350.000000	12.016915
1349.000000	12.037436
1348.000000	12.059964
1347.000000	12.040486
1346.000000	12.074690
1345.000000	12.122383
1344.000000	12.112785
1343.000000	12.099850
1342.000000	12.082728
1341.000000	12.096368
1340.000000	12.071799
1339.000000	12.102497
1338.000000	12.103807
1337.000000	12.122132
1336.000000	12.128162
1335.000000	12.140204
1334.000000	12.165837
1333.000000	12.146747
1332.000000	12.172338
1331.000000	12.139170
1330.000000	12.160936
1329.000000	12.178814
1328.000000	12.189475
1327.000000	12.192479
1326.000000	12.181675
1325.000000	12.228157
1324.000000	12.240326
1323.000000	12.195651
1322.000000	12.232212
1321.000000	12.201747
1320.000000	12.264476
1319.000000	12.228664
1318.000000	12.225820
1317.000000	12.216984
1316.000000	12.257277
1315.000000	12.276710
1314.000000	12.278604
1313.000000	12.248559
1312.000000	12.276286
1311.000000	12.295183
1310.000000	12.258208
1309.000000	12.253947
1308.000000	12.272612
1307.000000	12.256684
1306.000000	12.344457
1305.000000	12.327046
1304.000000	12.307391
1303.000000	12.294079
1302.000000	12.296061
1301.000000	12.319583
1300.000000	12.374310
1299.000000	12.380010
1298.000000	12.361154
1297.000000	12.359389
1296.000000	12.369410
1295.000000	12.394671
1294.000000	12.416609
1293.000000	12.381749
1292.000000	12.404064
1291.000000	12.416952
1290.000000	12.399524
1289.000000	12.412464
1288.000000	12.390676
1287.000000	12.429453
1286.000000	12.444659
1285.000000	12.434176
1284.000000	12.492806
1283.000000	12.467633
1282.000000	12.429252
1281.000000	12.472256
1280.000000	12.484294
1279.000000	12.484812
1278.000000	12.431599
1277.000000	12.542497
1276.000000	12.528238
1275.000000	12.513160
1274.000000	12.543421
1273.000000	12.520769
1272.000000	12.527517
1271.000000	12.483633
1270.000000	12.551366
1269.000000	12.561919
1268.000000	12.583168
1267.000000	12.590298
1266.000000	12.590733
1265.000000	12.573929
1264.000000	12.593226
1263.000000	12.600681
1262.000000	12.663128
1261.000000	12.573755
1260.000000	12.642618
1259.000000	12.618973
1258.000000	12.674067
1257.000000	12.637350
1256.000000	12.676811
1255.000000	12.699803
1254.000000	12.648965
1253.000000	12.670099
1252.000000	12.682591
1251.000000	12.712150
1250.000000	12.667503
1249.000000	12.647975
1248.000000	12.672550
1247.000000	12.734268
1246.000000	12.716365
1245.000000	12.724742
1244.000000	12.735588
1243.000000	12.726559
1242.000000	12.700330
1241.000000	12.784713
1240.000000	12.787363
1239.000000	12.726120
1238.000000	12.740427
1237.000000	12.763800
1236.000000	12.783389
1235.000000	12.764623
1234.000000	12.802300
1233.000000	12.821800
1232.000000	12.820029
1231.000000	12.829803
1230.000000	12.808138
1229.000000	12.835418
1228.000000	12.855530
1227.000000	12.824723
1226.000000	12.857247
1225.000000	12.873096
1224.000000	12.867880
1223.000000	12.860949
1222.000000	12.844169
1221.000000	12.878047
1220.000000	12.859113
1219.000000	12.869273
1218.000000	12.845411
1217.000000	12.898761
1216.000000	12.919687
1215.000000	12.938025
1214.000000	12.934064
1213.000000	12.888608
1212.000000	12.946429
1211.000000	12.959582
1210.000000	12.972480
1209.000000	12.990594
1208.000000	12.969642
1207.000000	12.987065
1206.000000	13.002414
1205.000000	12.982610
1204.000000	12.978694
1203.000000	13.014366
1202.000000	13.029267
1201.000000	13.032838
1200.000000	13.038781
1199.000000	13.074768
1198.000000	13.077809
1197.000000	13.065138
1196.000000	13.045298
1195.000000	13.057289
1194.000000	13.033228
1193.000000	13.009003
1192.000000	13.057860
1191.000000	13.110553
1190.000000	13.124900
1189.000000	13.104486
1188.000000	13.090945
1187.000000	13.084225
1186.000000	13.099478
1185.000000	13.126230
1184.000000	13.131127
1183.000000	13.138355
1182.000000	13.162428
1181.000000	13.173009
1180.000000	13.171644
1179.000000	13.201491
1178.000000	13.171159
1177.000000	13.171220
1176.000000	13.206782
1175.000000	13.196750
1174.000000	13.207633
1173.000000	13.188518
1172.000000	13.197692
1171.000000	13.240732
1170.000000	13.247258
1169.000000	13.268536
1168.000000	13.269422
1167.000000	13.280365
1166.000000	13.273456
1165.000000	13.279875
1164.000000	13.316742
1163.000000	13.295724
1162.000000	13.291592
1161.000000	13.270950
1160.000000	13.267314
1159.000000	13.302829
1158.000000	13.325177
1157.000000	13.359894
1156.000000	13.323367
1155.000000	13.332359
1154.000000	13.369002
1153.000000	13.363678
1152.000000	13.381537
1151.000000	13.383756
1150.000000	13.397785
1149.000000	13.407475
1148.000000	13.412292
1147.000000	13.410717
1146.000000	13.398957
1145.000000	13.414639
1144.000000	13.426135
1143.000000	13.449124
1142.000000	13.451292
1141.000000	13.436279
1140.000000	13.470416
1139.000000	13.463749
1138.000000	13.441044
1137.000000	13.512229
1136.000000	13.532468
1135.000000	13.528137
1134.000000	13.498080
1133.000000	13.485002
1132.000000	13.527078
1131.000000	13.534400
1130.000000	13.541725
1129.000000	13.547433
1128.000000	13.567193
1127.000000	13.573849
1126.000000	13.559916
1125.000000	13.559011
1124.000000	13.529383
1123.000000	13.528729
1122.000000	13.549585
1121.000000	13.602634
1120.000000	13.635121
1119.000000	13.596903
1118.000000	13.597811
1117.000000	13.635718
1116.000000	13.650294
1115.000000	13.632045
1114.000000	13.634619
1113.000000	13.684376
1112.000000	13.659380
1111.000000	13.649414
1110.000000	13.687338
1109.000000	13.641873
1108.000000	13.703737
1107.000000	13.742445
1106.000000	13.762997
1105.000000	13.740768
1104.000000	13.682675
1103.000000	13.711817
1102.000000	13.753113
1101.000000	13.757959
1100.000000	13.775076
1099.000000	13.760557
1098.000000	13.830950
1097.000000	13.789420
1096.000000	13.787102
1095.000000	13.787737
1094.000000	13.762014
1093.000000	13.800951
1092.000000	13.811823
1091.000000	13.853803
1090.000000	13.902343
1089.000000	13.842164
1088.000000	13.843216
1087.000000	13.871614
1086.000000	13.905897
1085.000000	13.899494
1084.000000	13.929483
1083.000000	13.960147
1082.000000	13.915506
1081.000000	13.905993
1080.000000	13.952628
1079.000000	13.894215
1078.000000	13.950315
1077.000000	13.946653
1076.000000	13.967157
1075.000000	13.985468
1074.000000	13.970823
1073.000000	14.024326
1072.000000	13.994520
1071.000000	14.019548
1070.000000	13.981540
1069.000000	13.999483
1068.000000	14.029365
1067.000000	13.975778
1066.000000	14.040578
1065.000000	14.057529
1064.000000	14.104283
1063.000000	14.100613
1062.000000	14.076575
1061.000000	14.146598
1060.000000	14.080498
1059.000000	14.152429
1058.000000	14.164785
1057.000000	14.135722
1056.000000	14.089838
1055.000000	14.087243
1054.000000	14.099542
1053.000000	14.185936
1052.000000	14.119035
1051.000000	14.166286
1050.000000	14.221225
1049.000000	14.235968
1048.000000	14.240623
1047.000000	14.167362
1046.000000	14.236066
1045.000000	14.212353
1044.000000	14.218376
1043.000000	14.246756
1042.000000	14.246920
1041.000000	14.289203
1040.000000	14.225548
1039.000000	14.203815
1038.000000	14.299274
1037.000000	14.255781
1036.000000	14.267635
1035.000000	14.306652
1034.000000	14.342505
1033.000000	14.273353
1032.000000	14.197373
1031.000000	14.319109
1030.000000	14.367659
1029.000000	14.386793
1028.000000	14.322341
1027.000000	14.345015
1026.000000	14.411328
1025.000000	14.337750
1024.000000	14.463653
1023.000000	14.390802
1022.000000	14.477914
1021.000000	14.388218
1020.000000	14.472181
1019.000000	14.413319
1018.000000	14.521283
1017.000000	14.483983
1016.000000	14.434608
1015.000000	14.460257
1014.000000	14.503673
1013.000000	14.460723
1012.000000	14.489353
1011.000000	14.446845
1010.000000	14.480781
1009.000000	14.500133
1008.000000	14.595938
1007.000000	14.537643
1006.000000	14.558077
1005.000000	14.513963
1004.000000	14.645729
1003.000000	14.576626
1002.000000	14.548225
1001.000000	14.540756
1000.000000	14.569646
999.000000	14.604073
998.000000	14.622849
997.000000	14.725024
996.000000	14.570015
995.000000	14.649878
994.000000	14.663276
993.000000	14.661858
992.000000	14.681959
991.000000	14.619415
990.000000	14.634740
989.000000	14.795887
988.000000	14.819242
987.000000	14.756522
986.000000	14.676213
985.000000	14.679931
984.000000	14.676348
983.000000	14.795001
982.000000	14.746773
981.000000	14.787883
980.000000	14.841644
979.000000	14.830097
978.000000	14.721023
977.000000	14.827502
976.000000	14.858809
975.000000	14.937916
974.000000	14.849643
973.000000	14.850976
972.000000	14.857133
971.000000	14.819515
970.000000	14.819311
969.000000	14.845335
968.000000	14.896286
967.000000	14.965010
966.000000	14.885108
965.000000	14.887336
964.000000	14.860520
963.000000	14.898516
962.000000	15.080544
961.000000	15.096803
960.000000	15.047834
959.000000	14.990185
958.000000	14.929010
957.000000	14.988943
956.000000	15.002789
955.000000	14.980144
954.000000	15.017547
953.000000	14.985112
952.000000	15.001753
951.000000	15.039071
950.000000	15.077245
949.000000	15.060209
948.000000	15.060070
947.000000	15.142654
946.000000	15.104696
945.000000	15.117048
944.000000	15.048215
943.000000	15.085093
942.000000	15.221449
941.000000	15.188154
940.000000	15.085719
939.000000	15.135403
938.000000	15.216228
937.000000	15.085302
936.000000	15.027440
935.000000	15.195745
934.000000	15.209222
933.000000	15.215387
932.000000	15.267819
931.000000	15.413136
930.000000	15.488630
929.000000	15.330559
928.000000	15.326324
927.000000	15.320149
926.000000	15.326747
925.000000	15.266624
924.000000	15.238036
923.000000	15.379457
922.000000	15.430216
921.000000	15.345251
920.000000	15.452366
919.000000	15.399372
918.000000	15.395011
917.000000	15.574317
916.000000	15.586371
915.000000	15.578513
914.000000	15.518795
913.000000	15.471449
912.000000	15.490056
911.000000	15.503223
910.000000	15.650780
909.000000	15.574137
908.000000	15.472803
907.000000	15.594232
906.000000	15.756182
905.000000	15.605188
904.000000	15.669820
903.000000	15.842912
902.000000	15.710825
901.000000	15.482140
900.000000	15.579553
899.000000	15.544473
898.000000	15.668737
897.000000	15.769830
896.000000	15.922344
895.000000	15.838972
894.000000	15.743961
893.000000	15.755384
892.000000	15.724759
891.000000	15.954199
890.000000	16.130358
889.000000	16.025331
888.000000	15.886382
887.000000	15.787123
886.000000	15.883785
885.000000	15.921171
884.000000	15.962467
883.000000	16.577613
882.000000	16.198284
881.000000	16.168733
880.000000	16.002064
879.000000	15.952436
878.000000	16.291835
877.000000	16.435541
876.000000	17.020057
875.000000	16.750509
874.000000	16.513267
873.000000	16.202499
872.000000	16.328752
871.000000	16.429903
870.000000	16.330444
869.000000	16.782552
868.000000	16.749699
867.000000	16.403971
866.000000	16.520759
865.000000	15.794977
864.000000	15.616547
863.000000	15.843860
862.000000	15.749327
861.000000	15.363777
860.000000	14.804168
859.000000	14.790130
858.000000	14.731535
857.000000	14.622950
856.000000	14.472581
855.000000	14.574713
854.000000	14.716380
853.000000	14.807884
852.000000	14.812590
851.000000	14.951474
850.000000	15.077176
849.000000	14.996503
848.000000	15.001269
847.000000	14.963562
846.000000	15.098715
845.000000	15.080127
844.000000	15.074919
843.000000	15.306468
842.000000	15.128191
841.000000	15.098542
840.000000	15.181441
839.000000	15.245090
838.000000	15.255133
837.000000	15.313378
836.000000	15.327312
835.000000	15.346594
834.000000	15.287131
833.000000	15.293891
832.000000	15.253693
831.000000	15.340305
830.000000	15.356810
829.000000	15.354723
828.000000	15.260368
827.000000	15.436257
826.000000	15.449342
825.000000	15.397315
824.000000	15.447457
823.000000	15.354193
822.000000	15.496121
821.000000	15.506079
820.000000	15.519510
819.000000	15.594879
818.000000	15.665166
817.000000	15.674114
816.000000	15.537602
815.000000	15.654204
814.000000	15.556074
813.000000	15.632844
812.000000	15.591791
811.000000	15.659720
810.000000	15.649735
809.000000	15.697591
808.000000	15.636372
807.000000	15.655935
806.000000	15.731205
805.000000	15.699362
804.000000	15.764638
803.000000	15.753788
802.000000	15.810005
801.000000	15.754369
800.000000	15.780981
799.000000	15.866787
798.000000	15.902412
797.000000	15.828727
796.000000	15.946560
795.000000	15.890772
794.000000	15.944540
793.000000	15.909554
792.000000	15.959416
791.000000	15.899703
790.000000	15.978132
789.000000	15.977433
788.000000	15.941934
787.000000	15.973423
786.000000	15.976955
785.000000	16.069376
784.000000	16.041649
783.000000	16.116139
782.000000	16.086701
781.000000	16.093185
780.000000	16.107346
779.000000	16.081813
778.000000	16.130729
777.000000	16.121483
776.000000	16.231737
775.000000	16.134927
774.000000	16.196307
773.000000	16.241308
772.000000	16.183297
771.000000	16.225646
770.000000	16.253392
769.000000	16.280360
768.000000	16.328000
767.000000	16.388681
766.000000	16.325256
765.000000	16.338606
764.000000	16.340675
763.000000	16.361420
762.000000	16.393361
761.000000	16.376082
760.000000	16.393474
759.000000	16.409751
758.000000	16.429941
757.000000	16.499014
756.000000	16.494266
755.000000	16.487469
754.000000	16.522775
753.000000	16.534802
752.000000	16.547980
751.000000	16.497533
750.000000	16.550343
749.000000	16.539714
748.000000	16.574483
747.000000	16.660422
746.000000	16.665755
745.000000	16.722223
744.000000	16.696906
743.000000	16.682149
742.000000	16.729925
741.000000	16.714754
740.000000	16.733585
739.000000	16.813805
738.000000	16.777143
737.000000	16.847210
736.000000	16.814773
735.000000	16.829337
734.000000	16.842246
733.000000	16.856756
732.000000	16.867550
731.000000	16.907368
730.000000	16.929885
729.000000	16.990533
728.000000	17.001843
727.000000	16.976103
726.000000	16.992450
725.000000	17.012260
724.000000	17.059488
723.000000	17.091768
722.000000	17.113388
721.000000	17.122059
720.000000	17.085158
719.000000	17.123676
718.000000	17.132668
717.000000	17.150666
716.000000	17.161451
715.000000	17.202636
714.000000	17.222810
713.000000	17.257306
712.000000	17.273566
711.000000	17.271060
710.000000	17.299717
709.000000	17.297327
708.000000	17.319885
707.000000	17.377008
706.000000	17.373127
705.000000	17.400831
704.000000	17.404358
703.000000	17.401793
702.000000	17.440061
701.000000	17.473222
700.000000	17.466625
699.000000	17.513099
698.000000	17.547045
697.000000	17.551935
696.000000	17.537351
695.000000	17.579115
694.000000	17.606012
693.000000	17.655743
692.000000	17.672826
691.000000	17.684590
690.000000	17.682676
689.000000	17.702475
688.000000	17.732379
687.000000	17.734829
686.000000	17.745082
685.000000	17.777963
684.000000	17.798770
683.000000	17.815581
682.000000	17.850032
681.000000	17.892128
680.000000	17.917813
679.000000	17.930029
678.000000	17.960689
677.000000	17.957216
676.000000	17.956968
675.000000	17.997948
674.000000	18.030759
673.000000	18.032419
672.000000	18.040850
671.000000	18.056975
670.000000	18.102435
669.000000	18.137440
668.000000	18.157456
667.000000	18.170631
666.000000	18.175694
665.000000	18.200026
664.000000	18.251602
663.000000	18.280202
662.000000	18.266065
661.000000	18.269640
660.000000	18.288665
659.000000	18.356040
658.000000	18.398398
657.000000	18.403482
656.000000	18.431980
655.000000	18.448455
654.000000	18.468218
653.000000	18.490259
652.000000	18.514287
651.000000	18.536810
650.000000	18.546544
649.000000	18.564575
648.000000	18.581595
647.000000	18.613755
646.000000	18.656106
645.000000	18.672351
644.000000	18.701567
643.000000	18.718627
642.000000	18.709837
641.000000	18.733115
640.000000	18.775175
639.000000	18.807410
638.000000	18.818717
637.000000	18.827168
636.000000	18.861360
635.000000	18.893830
634.000000	18.917729
633.000000	18.938475
632.000000	18.952216
631.000000	18.978199
630.000000	19.024226
629.000000	19.049255
628.000000	19.058951
627.000000	19.087937
626.000000	19.115823
625.000000	19.142251
624.000000	19.171761
623.000000	19.192387
622.000000	19.194023
621.000000	19.217947
620.000000	19.255509
619.000000	19.272054
618.000000	19.289901
617.000000	19.320884
616.000000	19.348977
615.000000	19.360029
614.000000	19.381884
613.000000	19.411362
612.000000	19.449883
611.000000	19.465699
610.000000	19.479912
609.000000	19.499883
608.000000	19.539255
607.000000	19.570864
606.000000	19.579744
605.000000	19.579428
604.000000	19.603969
603.000000	19.624970
602.000000	19.635230
601.000000	19.636677
600.000000	19.648346
599.000000	19.661018
598.000000	19.676144
597.000000	19.681763
596.000000	19.680540
595.000000	19.658302
594.000000	19.635637
593.000000	19.627907
592.000000	19.632111
591.000000	19.591424
590.000000	19.543665
589.000000	19.486956
588.000000	19.457095
587.000000	19.411764
586.000000	19.364844
585.000000	19.304342
584.000000	19.248372
583.000000	19.163287
582.000000	19.119961
581.000000	19.038205
580.000000	19.032507
579.000000	18.979772
578.000000	18.958588
577.000000	18.908584
576.000000	18.883218
575.000000	18.901488
574.000000	18.882305
573.000000	18.878783
572.000000	18.886740
571.000000	18.904361
570.000000	18.914027
569.000000	18.931194
568.000000	18.939303
567.000000	18.960422
566.000000	18.975184
565.000000	19.007719
564.000000	19.028300
563.000000	19.065886
562.000000	19.063033
561.000000	19.087981
560.000000	19.124540
559.000000	19.159757
558.000000	19.181652
557.000000	19.214762
556.000000	19.232334
555.000000	19.274850
554.000000	19.325200
553.000000	19.347061
552.000000	19.384161
551.000000	19.403139
550.000000	19.433767
549.000000	19.487046
548.000000	19.533947
547.000000	19.542675
546.000000	19.571225
545.000000	19.633422
544.000000	19.681355
543.000000	19.711651
542.000000	19.756318
541.000000	19.767785
540.000000	19.785271
539.000000	19.844356
538.000000	19.867947
537.000000	19.901875
536.000000	19.914711
535.000000	19.950694
534.000000	19.961216
533.000000	19.996270
532.000000	20.024976
531.000000	20.042136
530.000000	20.059357
529.000000	20.114581
528.000000	20.153942
527.000000	20.156401
526.000000	20.191008
525.000000	20.218503
524.000000	20.249486
523.000000	20.302382
522.000000	20.325536
521.000000	20.354198
520.000000	20.388346
519.000000	20.430971
518.000000	20.477173
517.000000	20.521448
516.000000	20.561983
515.000000	20.616788
514.000000	20.680689
513.000000	20.704274
512.000000	20.778969
511.000000	20.804774
510.000000	20.859937
509.000000	20.900756
508.000000	20.930808
507.000000	20.971959
506.000000	20.956898
505.000000	21.013771
504.000000	20.975774
503.000000	20.985340
502.000000	20.968724
501.000000	20.932640
500.000000	20.889354
499.000000	20.842077
498.000000	20.776960
497.000000	20.714431
496.000000	20.628469
495.000000	20.538229
494.000000	20.424997
493.000000	20.302569
492.000000	20.238112
491.000000	20.118287
490.000000	20.038444
489.000000	19.979702
488.000000	19.926224
487.000000	19.823850
486.000000	19.760640
485.000000	19.735630
484.000000	19.680358
483.000000	19.646220
482.000000	19.640883
481.000000	19.645179
480.000000	19.659071
479.000000	19.672158
478.000000	19.690285
477.000000	19.711696
476.000000	19.749632
475.000000	19.794703
474.000000	19.834945
473.000000	19.871196
472.000000	19.901692
471.000000	19.963377
470.000000	20.042690
469.000000	20.081216
468.000000	20.146704
467.000000	20.213383
466.000000	20.266465
465.000000	20.312108
464.000000	20.386281
463.000000	20.421705
462.000000	20.475759
461.000000	20.516959
460.000000	20.584390
459.000000	20.601507
458.000000	20.665504
457.000000	20.694932
456.000000	20.727074
455.000000	20.796823
454.000000	20.826198
453.000000	20.851197
452.000000	20.885506
451.000000	20.959021
450.000000	20.960421
449.000000	21.004435
448.000000	21.035314
447.000000	21.065026
446.000000	21.119858
445.000000	21.180100
444.000000	21.203717
443.000000	21.234254
442.000000	21.279381
441.000000	21.341012
440.000000	21.372582
439.000000	21.421259
438.000000	21.514140
437.000000	21.533023
436.000000	21.595586
435.000000	21.665564
434.000000	21.679587
433.000000	21.772886
432.000000	21.828304
431.000000	21.882453
430.000000	21.981129
429.000000	22.029112
428.000000	22.073032
427.000000	22.119484
426.000000	22.196679
425.000000	22.266041
424.000000	22.305091
423.000000	22.388088
422.000000	22.420588
421.000000	22.436753
420.000000	22.518995
419.000000	22.584371
418.000000	22.641646
417.000000	22.678692
416.000000	22.773721
415.000000	22.835735
414.000000	22.884741
413.000000	22.930420
412.000000	22.954139
411.000000	22.983385
410.000000	22.993019
409.000000	22.992543
408.000000	22.963654
407.000000	22.888746
406.000000	22.820912
405.000000	22.707640
404.000000	22.547168
403.000000	22.316239
402.000000	22.057485
401.000000	21.795107
400.000000	21.437148
399.000000	21.053097
398.000000	20.626332
397.000000	20.132421
396.000000	19.600854
395.000000	18.975883
394.000000	18.374689
393.000000	17.788118
392.000000	17.132707
391.000000	16.476236
390.000000	15.854845
389.000000	15.250462
388.000000	14.656221
387.000000	14.124953
386.000000	13.613381
385.000000	13.094201
384.000000	12.601696
383.000000	12.164129
382.000000	11.783248
381.000000	11.440315
380.000000	11.104832
379.000000	10.771049
378.000000	10.417896
377.000000	10.112534
376.000000	9.820306
375.000000	9.584424
374.000000	9.378146
373.000000	9.181782
372.000000	8.980862
371.000000	8.788201
370.000000	8.609878
369.000000	8.454560
368.000000	8.327967
367.000000	8.157386
366.000000	7.991844
365.000000	7.846247
364.000000	7.688454
363.000000	7.559447
362.000000	7.468063
361.000000	7.350824
360.000000	7.242342
359.000000	7.145292
358.000000	7.037834
357.000000	6.949827
356.000000	6.857756
355.000000	6.774933
354.000000	6.702379
353.000000	6.610571
352.000000	6.546965
351.000000	6.510285
350.000000	6.489482
349.000000	6.427958
348.000000	6.357334
347.000000	6.312785
346.000000	6.286110
345.000000	6.263470
344.000000	6.221398
343.000000	6.211007
342.000000	6.214025
341.000000	6.200319
340.000000	6.200547
339.000000	6.206332
338.000000	6.202446
337.000000	6.230817
336.000000	6.230301
335.000000	6.188038
334.000000	6.242621
333.000000	6.260183
332.000000	6.256998
331.000000	6.284706
330.000000	6.326667
329.000000	6.363866
328.000000	6.365155
327.000000	6.411963
326.000000	6.457003
325.000000	6.434192
324.000000	6.456691
323.000000	6.472708
322.000000	6.485060
321.000000	6.572748
320.000000	6.605124
319.000000	6.530448
318.000000	6.451831
317.000000	6.487300
316.000000	6.509506
315.000000	6.514184
314.000000	6.518415
313.000000	6.544011
312.000000	6.589220
311.000000	6.604334
310.000000	6.588067
309.000000	6.630648
308.000000	6.628374
307.000000	6.646469
306.000000	6.670340
305.000000	6.635429
304.000000	6.685378
303.000000	6.642491
302.000000	6.625200
301.000000	6.667515
300.000000	6.644832
299.000000	6.618369
298.000000	6.635200
297.000000	6.597615
296.000000	6.657083
295.000000	6.597691
294.000000	6.634069
293.000000	6.631656
292.000000	6.591253
291.000000	6.570932
290.000000	6.565065
289.000000	6.525323
288.000000	6.559806
287.000000	6.578881
286.000000	6.579047
285.000000	6.591329
284.000000	6.594487
283.000000	6.560909
282.000000	6.596400
281.000000	6.627962
280.000000	6.564641
279.000000	6.617866
278.000000	6.672937
277.000000	6.671477
276.000000	6.667131
275.000000	6.696687
274.000000	6.690491
273.000000	6.685979
272.000000	6.721389
271.000000	6.692895
270.000000	6.692278
269.000000	6.733440
268.000000	6.726560
267.000000	6.769678
266.000000	6.766265
265.000000	6.763897
264.000000	6.751993
263.000000	6.775105
262.000000	6.838628
261.000000	6.807270
260.000000	6.815677
259.000000	6.827913
258.000000	6.850969
257.000000	6.850401
256.000000	6.852420
255.000000	6.878615
254.000000	6.836141
253.000000	6.865924
252.000000	6.865861
251.000000	6.878156
250.000000	6.921257
249.000000	6.902223
248.000000	6.939162
247.000000	6.893884
246.000000	6.930714
245.000000	6.937612
244.000000	6.958842
243.000000	7.007111
242.000000	6.952148
241.000000	7.028360
240.000000	6.980234
239.000000	7.023814
238.000000	7.067861
237.000000	7.059111
236.000000	7.091302
235.000000	7.111873
234.000000	7.113527
233.000000	7.095108
232.000000	7.157395
231.000000	7.188479
230.000000	7.212171
229.000000	7.195898
228.000000	7.247079
227.000000	7.243876
226.000000	7.307621
225.000000	7.324787
224.000000	7.315618
223.000000	7.354328
222.000000	7.399238
221.000000	7.403737
220.000000	7.467806
219.000000	7.489141
218.000000	7.548645
217.000000	7.550105
216.000000	7.558437
215.000000	7.610952
214.000000	7.695290
213.000000	7.661927
212.000000	7.696052
211.000000	7.693536
210.000000	7.775423
209.000000	7.811096
208.000000	7.906841
207.000000	7.897652
206.000000	7.937304
205.000000	8.005381
204.000000	8.198153
203.000000	8.201834
202.000000	8.304911
201.000000	8.373287
200.000000	8.518733
199.000000	8.515262
198.000000	8.613864
197.000000	8.803675
196.000000	8.924132
195.000000	9.072877
194.000000	9.494782
193.000000	9.670279
192.000000	10.241581
191.000000	11.459799
190.000000	14.513027
189.000000	22.983703
188.000000	44.339113
187.000000	79.149286
186.000000	89.339188
185.000000	97.483923
184.000000	99.100763
183.000000	101.144670
182.000000	96.229892
181.000000	98.506072
180.000000	98.138858
179.000000	104.143459
178.000000	101.501159
177.000000	97.674681
176.000000	99.283025
175.000000	93.082706
