PE UV       SUBTECH     SPECTRUM    ASCII       PEDS        4.00        
   -1
Sample6.Sample.Raw.ASC
25/05/30
12:09:03.00
25/06/06
09:00:45.00
tom jordan
DDQ R2
175.000000
1
Lambda 1050
1050L1807051
PerkinElmer UV WinLab 6.4.0.973 / 2.02.06 Lambda 900 UV/VIS/NIR, Jan 28 2016 16:58:34

0
0
3350
0
0
UV/VIS
1
1
1
RBeamAtt,SBeamAtt,150mm sphere / downward view, WB InGaAs Detector
0
0
0
0
Program
Program
3350
3350
3350
0
1
 
 
 
0
 
860.8
319.2
860.8
Front
100
 
S:100 R:100
0
0
0
0
 
0
 
 
 
0
 
 
0
0
0
0
0
 
 
 
 
0
0


0
0
#HDR
-1
-1
#GR
nm
%T
1.0
0.0
2000.000000
-1.000000
1826
8
111.034771
6.172797
#DATA
2000.000000	10.394438
1999.000000	10.245543
1998.000000	10.066628
1997.000000	9.980493
1996.000000	10.110578
1995.000000	10.194079
1994.000000	9.975485
1993.000000	10.464850
1992.000000	10.163259
1991.000000	10.440517
1990.000000	10.275051
1989.000000	9.982929
1988.000000	10.082402
1987.000000	9.923571
1986.000000	10.169626
1985.000000	9.906631
1984.000000	10.177732
1983.000000	10.060302
1982.000000	10.093551
1981.000000	10.079175
1980.000000	9.930406
1979.000000	10.260251
1978.000000	9.891861
1977.000000	9.992289
1976.000000	9.869201
1975.000000	10.009399
1974.000000	9.914961
1973.000000	9.865293
1972.000000	10.006150
1971.000000	9.958410
1970.000000	9.975829
1969.000000	9.993394
1968.000000	10.070035
1967.000000	10.005274
1966.000000	10.193328
1965.000000	10.134119
1964.000000	10.276944
1963.000000	10.226499
1962.000000	10.141075
1961.000000	10.203895
1960.000000	9.858481
1959.000000	9.640421
1958.000000	9.893364
1957.000000	10.195652
1956.000000	10.267530
1955.000000	10.041324
1954.000000	9.898901
1953.000000	10.052660
1952.000000	10.005436
1951.000000	10.030718
1950.000000	9.871610
1949.000000	10.115981
1948.000000	10.147639
1947.000000	10.036655
1946.000000	10.311029
1945.000000	10.022868
1944.000000	10.383290
1943.000000	10.292503
1942.000000	10.527470
1941.000000	10.237478
1940.000000	10.073445
1939.000000	9.894868
1938.000000	9.857618
1937.000000	10.229420
1936.000000	10.231540
1935.000000	10.487187
1934.000000	10.097387
1933.000000	10.286461
1932.000000	9.925674
1931.000000	9.873815
1930.000000	10.369051
1929.000000	10.173561
1928.000000	10.544743
1927.000000	10.258669
1926.000000	10.125139
1925.000000	10.208572
1924.000000	10.754544
1923.000000	10.991147
1922.000000	10.467284
1921.000000	10.109019
1920.000000	10.237101
1919.000000	10.358551
1918.000000	10.065469
1917.000000	10.069294
1916.000000	10.014240
1915.000000	10.176654
1914.000000	10.510007
1913.000000	10.868560
1912.000000	10.842140
1911.000000	10.545229
1910.000000	10.371797
1909.000000	10.422718
1908.000000	10.248092
1907.000000	10.201711
1906.000000	10.122785
1905.000000	10.191263
1904.000000	10.362058
1903.000000	10.461597
1902.000000	10.638760
1901.000000	10.429945
1900.000000	10.398052
1899.000000	10.245803
1898.000000	9.901569
1897.000000	10.261645
1896.000000	10.378056
1895.000000	10.356261
1894.000000	10.121293
1893.000000	10.231422
1892.000000	10.484531
1891.000000	10.403393
1890.000000	10.229467
1889.000000	10.328589
1888.000000	10.421566
1887.000000	10.256000
1886.000000	10.225134
1885.000000	10.313142
1884.000000	10.314709
1883.000000	10.265899
1882.000000	10.237667
1881.000000	10.327852
1880.000000	10.496439
1879.000000	10.527033
1878.000000	10.460971
1877.000000	10.337392
1876.000000	10.329184
1875.000000	10.413459
1874.000000	10.539330
1873.000000	10.559224
1872.000000	10.286793
1871.000000	10.204154
1870.000000	10.066883
1869.000000	10.135216
1868.000000	10.379585
1867.000000	10.491124
1866.000000	10.577158
1865.000000	10.440349
1864.000000	10.330397
1863.000000	10.216261
1862.000000	10.307753
1861.000000	10.203989
1860.000000	10.310815
1859.000000	10.488129
1858.000000	10.429200
1857.000000	10.468609
1856.000000	10.416864
1855.000000	10.347299
1854.000000	10.411804
1853.000000	10.218755
1852.000000	10.278269
1851.000000	10.275903
1850.000000	10.311765
1849.000000	10.317988
1848.000000	10.258928
1847.000000	10.376359
1846.000000	10.224475
1845.000000	10.201382
1844.000000	10.399513
1843.000000	10.478111
1842.000000	10.523422
1841.000000	10.086140
1840.000000	10.277110
1839.000000	10.277607
1838.000000	10.229490
1837.000000	10.238586
1836.000000	10.133792
1835.000000	10.249838
1834.000000	10.282365
1833.000000	10.287883
1832.000000	10.247926
1831.000000	10.320554
1830.000000	10.238916
1829.000000	10.313403
1828.000000	10.301465
1827.000000	10.429608
1826.000000	10.303861
1825.000000	10.260771
1824.000000	10.290418
1823.000000	10.277039
1822.000000	10.297576
1821.000000	10.143808
1820.000000	10.293735
1819.000000	10.217626
1818.000000	10.248233
1817.000000	10.208384
1816.000000	10.217861
1815.000000	10.287812
1814.000000	10.295110
1813.000000	10.293949
1812.000000	10.375571
1811.000000	10.294802
1810.000000	10.125512
1809.000000	10.200677
1808.000000	10.156124
1807.000000	10.263583
1806.000000	10.340511
1805.000000	10.364539
1804.000000	10.427111
1803.000000	10.177990
1802.000000	10.204671
1801.000000	10.165014
1800.000000	10.230833
1799.000000	10.330159
1798.000000	10.232694
1797.000000	10.382884
1796.000000	10.209841
1795.000000	10.209583
1794.000000	10.086210
1793.000000	10.226335
1792.000000	10.234438
1791.000000	10.250947
1790.000000	10.234014
1789.000000	10.413914
1788.000000	10.214027
1787.000000	10.308346
1786.000000	10.447467
1785.000000	10.070824
1784.000000	10.388504
1783.000000	10.308797
1782.000000	10.386877
1781.000000	10.366496
1780.000000	10.420991
1779.000000	10.245166
1778.000000	10.489819
1777.000000	10.329398
1776.000000	10.369481
1775.000000	10.427063
1774.000000	10.513492
1773.000000	10.594123
1772.000000	10.478015
1771.000000	10.461646
1770.000000	10.385131
1769.000000	10.292456
1768.000000	10.407562
1767.000000	10.374185
1766.000000	10.518601
1765.000000	10.445422
1764.000000	10.480983
1763.000000	10.274081
1762.000000	10.505361
1761.000000	10.309913
1760.000000	10.407322
1759.000000	10.443162
1758.000000	10.406555
1757.000000	10.293095
1756.000000	10.426439
1755.000000	10.530573
1754.000000	10.507805
1753.000000	10.439147
1752.000000	10.456564
1751.000000	10.508216
1750.000000	10.397023
1749.000000	10.584492
1748.000000	10.370698
1747.000000	10.264670
1746.000000	10.460128
1745.000000	10.496995
1744.000000	10.412116
1743.000000	10.485738
1742.000000	10.731094
1741.000000	10.589830
1740.000000	10.590830
1739.000000	10.384247
1738.000000	10.465838
1737.000000	10.455673
1736.000000	10.432563
1735.000000	10.533629
1734.000000	10.571144
1733.000000	10.509232
1732.000000	10.467477
1731.000000	10.507684
1730.000000	10.403896
1729.000000	10.476929
1728.000000	10.545229
1727.000000	10.631144
1726.000000	10.654572
1725.000000	10.587441
1724.000000	10.582761
1723.000000	10.435566
1722.000000	10.520660
1721.000000	10.572727
1720.000000	10.612752
1719.000000	10.614218
1718.000000	10.556355
1717.000000	10.522502
1716.000000	10.611212
1715.000000	10.640965
1714.000000	10.471285
1713.000000	10.600003
1712.000000	10.686340
1711.000000	10.559224
1710.000000	10.490809
1709.000000	10.630189
1708.000000	10.696187
1707.000000	10.663088
1706.000000	10.657074
1705.000000	10.604202
1704.000000	10.586271
1703.000000	10.539767
1702.000000	10.563261
1701.000000	10.628647
1700.000000	10.612996
1699.000000	10.529530
1698.000000	10.575502
1697.000000	10.657369
1696.000000	10.584833
1695.000000	10.658081
1694.000000	10.644199
1693.000000	10.690549
1692.000000	10.614267
1691.000000	10.695990
1690.000000	10.661271
1689.000000	10.591489
1688.000000	10.504442
1687.000000	10.564939
1686.000000	10.622678
1685.000000	10.590001
1684.000000	10.689195
1683.000000	10.602664
1682.000000	10.607621
1681.000000	10.592464
1680.000000	10.654940
1679.000000	10.664709
1678.000000	10.710062
1677.000000	10.712331
1676.000000	10.696754
1675.000000	10.652217
1674.000000	10.665495
1673.000000	10.662474
1672.000000	10.628207
1671.000000	10.729587
1670.000000	10.697320
1669.000000	10.747835
1668.000000	10.791281
1667.000000	10.761728
1666.000000	10.746944
1665.000000	10.733368
1664.000000	10.772785
1663.000000	10.759547
1662.000000	10.729068
1661.000000	10.663211
1660.000000	10.795232
1659.000000	10.709914
1658.000000	10.620819
1657.000000	10.725758
1656.000000	10.737520
1655.000000	10.810779
1654.000000	10.838745
1653.000000	10.839943
1652.000000	10.764256
1651.000000	10.688038
1650.000000	10.704096
1649.000000	10.735543
1648.000000	10.689343
1647.000000	10.744025
1646.000000	10.810729
1645.000000	10.723338
1644.000000	10.723733
1643.000000	10.738138
1642.000000	10.768272
1641.000000	10.843113
1640.000000	10.851731
1639.000000	10.804060
1638.000000	10.724622
1637.000000	10.724400
1636.000000	10.724449
1635.000000	10.719487
1634.000000	10.792499
1633.000000	10.850057
1632.000000	10.737866
1631.000000	10.782240
1630.000000	10.815958
1629.000000	10.801349
1628.000000	10.809435
1627.000000	10.723758
1626.000000	10.742293
1625.000000	10.815933
1624.000000	10.814091
1623.000000	10.802891
1622.000000	10.857304
1621.000000	10.834852
1620.000000	10.849757
1619.000000	10.858179
1618.000000	10.833156
1617.000000	10.854679
1616.000000	10.850906
1615.000000	10.886744
1614.000000	10.860855
1613.000000	10.859454
1612.000000	10.904707
1611.000000	10.935433
1610.000000	10.901820
1609.000000	10.914052
1608.000000	10.886769
1607.000000	10.861405
1606.000000	10.881556
1605.000000	10.863231
1604.000000	10.870086
1603.000000	10.916339
1602.000000	10.871088
1601.000000	10.972131
1600.000000	10.879652
1599.000000	10.897353
1598.000000	10.970262
1597.000000	10.981964
1596.000000	10.918149
1595.000000	10.958674
1594.000000	10.969277
1593.000000	10.921543
1592.000000	10.986491
1591.000000	10.964706
1590.000000	10.980194
1589.000000	10.906339
1588.000000	10.989350
1587.000000	11.043964
1586.000000	10.993830
1585.000000	10.971980
1584.000000	10.994057
1583.000000	11.010905
1582.000000	10.966297
1581.000000	11.028946
1580.000000	10.990311
1579.000000	10.998640
1578.000000	10.965666
1577.000000	11.022751
1576.000000	10.951359
1575.000000	10.994741
1574.000000	11.050960
1573.000000	11.010017
1572.000000	10.921845
1571.000000	11.021025
1570.000000	10.965943
1569.000000	11.012096
1568.000000	11.043786
1567.000000	11.045618
1566.000000	11.027752
1565.000000	11.085059
1564.000000	10.988515
1563.000000	11.185567
1562.000000	11.107978
1561.000000	10.983506
1560.000000	11.053301
1559.000000	11.031816
1558.000000	11.085646
1557.000000	11.084625
1556.000000	11.131482
1555.000000	11.108182
1554.000000	11.066595
1553.000000	11.061856
1552.000000	11.059055
1551.000000	11.067716
1550.000000	11.086565
1549.000000	11.198994
1548.000000	11.087663
1547.000000	11.168890
1546.000000	11.153187
1545.000000	11.072839
1544.000000	11.180365
1543.000000	11.103835
1542.000000	11.189560
1541.000000	11.129560
1540.000000	11.169713
1539.000000	11.194585
1538.000000	11.281868
1537.000000	11.195101
1536.000000	11.212204
1535.000000	11.142612
1534.000000	11.094124
1533.000000	11.165084
1532.000000	11.229541
1531.000000	11.261546
1530.000000	11.247370
1529.000000	11.309750
1528.000000	11.212437
1527.000000	11.327733
1526.000000	11.223492
1525.000000	11.263024
1524.000000	11.157760
1523.000000	11.200232
1522.000000	11.281062
1521.000000	11.205210
1520.000000	11.291327
1519.000000	11.160817
1518.000000	11.234843
1517.000000	11.210423
1516.000000	11.314803
1515.000000	11.280829
1514.000000	11.373627
1513.000000	11.227292
1512.000000	11.345980
1511.000000	11.249183
1510.000000	11.226619
1509.000000	11.297075
1508.000000	11.333029
1507.000000	11.394493
1506.000000	11.323195
1505.000000	11.311677
1504.000000	11.288052
1503.000000	11.293121
1502.000000	11.298896
1501.000000	11.387070
1500.000000	11.466794
1499.000000	11.400949
1498.000000	11.483043
1497.000000	11.424574
1496.000000	11.368600
1495.000000	11.326585
1494.000000	11.330968
1493.000000	11.307901
1492.000000	11.385366
1491.000000	11.360462
1490.000000	11.370538
1489.000000	11.410482
1488.000000	11.326768
1487.000000	11.362529
1486.000000	11.329689
1485.000000	11.516115
1484.000000	11.433521
1483.000000	11.434495
1482.000000	11.437128
1481.000000	11.501884
1480.000000	11.510230
1479.000000	11.456079
1478.000000	11.429204
1477.000000	11.406831
1476.000000	11.443424
1475.000000	11.437919
1474.000000	11.500852
1473.000000	11.447325
1472.000000	11.409221
1471.000000	11.430652
1470.000000	11.470200
1469.000000	11.556491
1468.000000	11.579159
1467.000000	11.566102
1466.000000	11.503129
1465.000000	11.529222
1464.000000	11.524391
1463.000000	11.555879
1462.000000	11.478047
1461.000000	11.548192
1460.000000	11.590229
1459.000000	11.607000
1458.000000	11.600855
1457.000000	11.544337
1456.000000	11.550160
1455.000000	11.518210
1454.000000	11.554842
1453.000000	11.557077
1452.000000	11.589748
1451.000000	11.595914
1450.000000	11.594126
1449.000000	11.538783
1448.000000	11.604675
1447.000000	11.617134
1446.000000	11.599493
1445.000000	11.616037
1444.000000	11.574440
1443.000000	11.645979
1442.000000	11.654858
1441.000000	11.680354
1440.000000	11.685357
1439.000000	11.646730
1438.000000	11.560404
1437.000000	11.619060
1436.000000	11.617000
1435.000000	11.628588
1434.000000	11.710030
1433.000000	11.663718
1432.000000	11.678149
1431.000000	11.684389
1430.000000	11.686918
1429.000000	11.656281
1428.000000	11.692059
1427.000000	11.739051
1426.000000	11.737267
1425.000000	11.685976
1424.000000	11.694752
1423.000000	11.680435
1422.000000	11.644987
1421.000000	11.699492
1420.000000	11.688479
1419.000000	11.712052
1418.000000	11.690148
1417.000000	11.719282
1416.000000	11.755389
1415.000000	11.724599
1414.000000	11.727542
1413.000000	11.802663
1412.000000	11.777822
1411.000000	11.790277
1410.000000	11.829898
1409.000000	11.796685
1408.000000	11.781294
1407.000000	11.776656
1406.000000	11.868778
1405.000000	11.849963
1404.000000	11.793019
1403.000000	11.812097
1402.000000	11.791281
1401.000000	11.827120
1400.000000	11.835483
1399.000000	11.744215
1398.000000	11.764948
1397.000000	11.791444
1396.000000	11.769337
1395.000000	11.808861
1394.000000	11.796957
1393.000000	11.822273
1392.000000	11.800489
1391.000000	11.782461
1390.000000	11.817157
1389.000000	11.878183
1388.000000	11.895371
1387.000000	11.895974
1386.000000	11.876843
1385.000000	11.870117
1384.000000	11.835129
1383.000000	11.806604
1382.000000	11.873643
1381.000000	11.973524
1380.000000	11.971291
1379.000000	11.910116
1378.000000	11.851409
1377.000000	11.846389
1376.000000	11.896987
1375.000000	11.931609
1374.000000	11.961262
1373.000000	11.976640
1372.000000	11.993391
1371.000000	12.023060
1370.000000	11.951241
1369.000000	11.949755
1368.000000	11.962942
1367.000000	11.984640
1366.000000	12.009004
1365.000000	12.036078
1364.000000	12.057492
1363.000000	12.023419
1362.000000	11.969445
1361.000000	11.943868
1360.000000	11.940183
1359.000000	11.932653
1358.000000	12.008921
1357.000000	12.016168
1356.000000	12.070993
1355.000000	12.097872
1354.000000	12.110498
1353.000000	12.039737
1352.000000	12.023032
1351.000000	12.110805
1350.000000	12.050165
1349.000000	12.042648
1348.000000	12.085984
1347.000000	12.105284
1346.000000	12.097065
1345.000000	12.128860
1344.000000	12.092553
1343.000000	12.061102
1342.000000	12.094725
1341.000000	12.089992
1340.000000	12.092330
1339.000000	12.133246
1338.000000	12.123974
1337.000000	12.115630
1336.000000	12.090604
1335.000000	12.130899
1334.000000	12.170180
1333.000000	12.203404
1332.000000	12.147531
1331.000000	12.166902
1330.000000	12.121183
1329.000000	12.116048
1328.000000	12.147391
1327.000000	12.156401
1326.000000	12.198572
1325.000000	12.210740
1324.000000	12.215381
1323.000000	12.184284
1322.000000	12.158584
1321.000000	12.173375
1320.000000	12.177917
1319.000000	12.169900
1318.000000	12.219938
1317.000000	12.207648
1316.000000	12.246529
1315.000000	12.199611
1314.000000	12.196578
1313.000000	12.239255
1312.000000	12.213777
1311.000000	12.254427
1310.000000	12.244047
1309.000000	12.229424
1308.000000	12.240693
1307.000000	12.256430
1306.000000	12.248869
1305.000000	12.278491
1304.000000	12.274194
1303.000000	12.307873
1302.000000	12.325314
1301.000000	12.308865
1300.000000	12.345168
1299.000000	12.357767
1298.000000	12.328976
1297.000000	12.307986
1296.000000	12.325598
1295.000000	12.378186
1294.000000	12.402807
1293.000000	12.399895
1292.000000	12.340024
1291.000000	12.355178
1290.000000	12.405664
1289.000000	12.400951
1288.000000	12.390277
1287.000000	12.383346
1286.000000	12.412607
1285.000000	12.436724
1284.000000	12.414836
1283.000000	12.375422
1282.000000	12.456843
1281.000000	12.466886
1280.000000	12.472772
1279.000000	12.436008
1278.000000	12.564147
1277.000000	12.532393
1276.000000	12.512267
1275.000000	12.451997
1274.000000	12.504490
1273.000000	12.453689
1272.000000	12.492029
1271.000000	12.528411
1270.000000	12.544461
1269.000000	12.568950
1268.000000	12.491771
1267.000000	12.516301
1266.000000	12.529306
1265.000000	12.566027
1264.000000	12.557032
1263.000000	12.620077
1262.000000	12.610056
1261.000000	12.595314
1260.000000	12.569500
1259.000000	12.608894
1258.000000	12.628390
1257.000000	12.638514
1256.000000	12.670828
1255.000000	12.661933
1254.000000	12.675234
1253.000000	12.679146
1252.000000	12.694044
1251.000000	12.695184
1250.000000	12.639969
1249.000000	12.665198
1248.000000	12.674213
1247.000000	12.708784
1246.000000	12.681161
1245.000000	12.725768
1244.000000	12.712647
1243.000000	12.736145
1242.000000	12.712706
1241.000000	12.752197
1240.000000	12.736996
1239.000000	12.738081
1238.000000	12.745386
1237.000000	12.717712
1236.000000	12.784419
1235.000000	12.754928
1234.000000	12.772856
1233.000000	12.749114
1232.000000	12.775326
1231.000000	12.783978
1230.000000	12.799235
1229.000000	12.779769
1228.000000	12.782064
1227.000000	12.800178
1226.000000	12.739430
1225.000000	12.791162
1224.000000	12.796288
1223.000000	12.867317
1222.000000	12.888162
1221.000000	12.880983
1220.000000	12.839940
1219.000000	12.880212
1218.000000	12.922900
1217.000000	12.922157
1216.000000	12.947920
1215.000000	12.893119
1214.000000	12.891991
1213.000000	12.897633
1212.000000	12.972360
1211.000000	12.935434
1210.000000	12.953914
1209.000000	12.933826
1208.000000	12.935910
1207.000000	12.960865
1206.000000	12.951170
1205.000000	12.960328
1204.000000	12.935225
1203.000000	12.932485
1202.000000	12.927514
1201.000000	13.014006
1200.000000	13.059393
1199.000000	13.061137
1198.000000	13.069651
1197.000000	13.032478
1196.000000	12.992179
1195.000000	13.016793
1194.000000	13.056687
1193.000000	13.069320
1192.000000	13.081574
1191.000000	13.109677
1190.000000	13.084677
1189.000000	13.050946
1188.000000	13.030888
1187.000000	13.079676
1186.000000	13.112787
1185.000000	13.120821
1184.000000	13.153005
1183.000000	13.158882
1182.000000	13.149251
1181.000000	13.149069
1180.000000	13.121757
1179.000000	13.108530
1178.000000	13.119673
1177.000000	13.155368
1176.000000	13.164762
1175.000000	13.202403
1174.000000	13.209610
1173.000000	13.181505
1172.000000	13.202251
1171.000000	13.228299
1170.000000	13.269636
1169.000000	13.264351
1168.000000	13.260686
1167.000000	13.244605
1166.000000	13.211466
1165.000000	13.227964
1164.000000	13.251865
1163.000000	13.276940
1162.000000	13.298357
1161.000000	13.334416
1160.000000	13.362047
1159.000000	13.325791
1158.000000	13.294041
1157.000000	13.274800
1156.000000	13.276054
1155.000000	13.313830
1154.000000	13.319196
1153.000000	13.312910
1152.000000	13.349285
1151.000000	13.339483
1150.000000	13.348855
1149.000000	13.358940
1148.000000	13.352605
1147.000000	13.327417
1146.000000	13.361093
1145.000000	13.446399
1144.000000	13.456496
1143.000000	13.426598
1142.000000	13.400099
1141.000000	13.432597
1140.000000	13.457178
1139.000000	13.484070
1138.000000	13.483014
1137.000000	13.518951
1136.000000	13.493295
1135.000000	13.472587
1134.000000	13.486585
1133.000000	13.484784
1132.000000	13.502463
1131.000000	13.510922
1130.000000	13.484598
1129.000000	13.476993
1128.000000	13.498702
1127.000000	13.493978
1126.000000	13.514252
1125.000000	13.566100
1124.000000	13.553174
1123.000000	13.589798
1122.000000	13.585136
1121.000000	13.560540
1120.000000	13.574911
1119.000000	13.571130
1118.000000	13.566724
1117.000000	13.613287
1116.000000	13.595807
1115.000000	13.631072
1114.000000	13.643412
1113.000000	13.637162
1112.000000	13.623760
1111.000000	13.613569
1110.000000	13.674675
1109.000000	13.678328
1108.000000	13.667749
1107.000000	13.693927
1106.000000	13.674202
1105.000000	13.666522
1104.000000	13.695598
1103.000000	13.695724
1102.000000	13.730679
1101.000000	13.767846
1100.000000	13.763725
1099.000000	13.719017
1098.000000	13.732702
1097.000000	13.709638
1096.000000	13.733682
1095.000000	13.731817
1094.000000	13.795136
1093.000000	13.807403
1092.000000	13.860248
1091.000000	13.859514
1090.000000	13.827288
1089.000000	13.801872
1088.000000	13.803461
1087.000000	13.880496
1086.000000	13.868644
1085.000000	13.918454
1084.000000	13.897478
1083.000000	13.921435
1082.000000	13.865898
1081.000000	13.831332
1080.000000	13.901223
1079.000000	13.867494
1078.000000	13.917621
1077.000000	13.935097
1076.000000	13.905256
1075.000000	13.910668
1074.000000	13.959022
1073.000000	13.960694
1072.000000	13.938531
1071.000000	13.978063
1070.000000	14.016739
1069.000000	14.024358
1068.000000	13.984824
1067.000000	14.033338
1066.000000	14.053549
1065.000000	14.034211
1064.000000	14.097010
1063.000000	14.045364
1062.000000	14.075246
1061.000000	13.956258
1060.000000	14.048404
1059.000000	14.102626
1058.000000	14.104348
1057.000000	14.181364
1056.000000	14.110747
1055.000000	14.199498
1054.000000	14.089124
1053.000000	14.139759
1052.000000	14.121701
1051.000000	14.123684
1050.000000	14.189791
1049.000000	14.154157
1048.000000	14.107206
1047.000000	14.108895
1046.000000	14.153831
1045.000000	14.094868
1044.000000	14.283479
1043.000000	14.215986
1042.000000	14.172974
1041.000000	14.207151
1040.000000	14.138424
1039.000000	14.189987
1038.000000	14.133216
1037.000000	14.211208
1036.000000	14.151028
1035.000000	14.242263
1034.000000	14.291309
1033.000000	14.327783
1032.000000	14.320758
1031.000000	14.319109
1030.000000	14.391465
1029.000000	14.334614
1028.000000	14.339665
1027.000000	14.331677
1026.000000	14.369776
1025.000000	14.356349
1024.000000	14.389046
1023.000000	14.326167
1022.000000	14.308760
1021.000000	14.444383
1020.000000	14.445447
1019.000000	14.496595
1018.000000	14.476948
1017.000000	14.365773
1016.000000	14.455330
1015.000000	14.455363
1014.000000	14.476581
1013.000000	14.483049
1012.000000	14.467584
1011.000000	14.507614
1010.000000	14.544172
1009.000000	14.561161
1008.000000	14.569243
1007.000000	14.515266
1006.000000	14.551508
1005.000000	14.536237
1004.000000	14.515032
1003.000000	14.604409
1002.000000	14.615242
1001.000000	14.586329
1000.000000	14.512927
999.000000	14.535869
998.000000	14.633796
997.000000	14.633931
996.000000	14.614501
995.000000	14.506913
994.000000	14.641717
993.000000	14.586396
992.000000	14.508483
991.000000	14.615713
990.000000	14.774303
989.000000	14.854875
988.000000	14.778726
987.000000	14.874693
986.000000	14.745653
985.000000	14.694134
984.000000	14.675064
983.000000	14.659731
982.000000	14.770663
981.000000	14.712010
980.000000	14.738999
979.000000	14.757677
978.000000	14.738151
977.000000	14.764917
976.000000	14.852070
975.000000	14.875926
974.000000	14.807407
973.000000	14.801748
972.000000	14.850053
971.000000	14.741239
970.000000	14.844754
969.000000	14.965733
968.000000	14.914648
967.000000	14.991255
966.000000	14.867844
965.000000	14.935749
964.000000	14.907232
963.000000	14.969111
962.000000	15.009734
961.000000	15.071935
960.000000	14.998886
959.000000	14.837782
958.000000	14.842840
957.000000	14.954607
956.000000	15.127355
955.000000	14.951990
954.000000	14.935680
953.000000	14.906854
952.000000	14.918598
951.000000	14.959635
950.000000	15.047107
949.000000	15.171342
948.000000	15.124429
947.000000	15.202990
946.000000	15.231336
945.000000	15.084850
944.000000	15.045790
943.000000	15.191757
942.000000	15.216333
941.000000	15.224078
940.000000	15.143072
939.000000	15.121644
938.000000	15.164427
937.000000	15.166173
936.000000	15.117919
935.000000	15.218330
934.000000	15.273656
933.000000	15.327771
932.000000	15.396925
931.000000	15.264128
930.000000	15.226813
929.000000	15.332289
928.000000	15.454573
927.000000	15.362787
926.000000	15.436328
925.000000	15.378607
924.000000	15.291286
923.000000	15.300055
922.000000	15.310839
921.000000	15.549377
920.000000	15.545332
919.000000	15.530556
918.000000	15.381121
917.000000	15.046448
916.000000	15.068534
915.000000	15.223903
914.000000	15.336738
913.000000	15.461193
912.000000	15.629317
911.000000	15.919338
910.000000	15.690616
909.000000	15.500082
908.000000	15.419596
907.000000	15.442265
906.000000	15.786578
905.000000	15.702290
904.000000	15.793777
903.000000	15.720342
902.000000	15.481820
901.000000	15.245512
900.000000	15.226216
899.000000	15.414875
898.000000	15.714552
897.000000	15.973607
896.000000	16.083516
895.000000	16.019391
894.000000	15.607991
893.000000	15.565354
892.000000	15.990204
891.000000	15.769067
890.000000	15.882944
889.000000	15.909627
888.000000	15.985271
887.000000	16.011094
886.000000	15.874864
885.000000	15.957248
884.000000	15.754151
883.000000	16.088331
882.000000	16.131732
881.000000	15.576791
880.000000	15.725954
879.000000	15.729829
878.000000	15.985713
877.000000	15.763440
876.000000	16.269417
875.000000	16.458718
874.000000	16.558157
873.000000	16.380909
872.000000	15.725121
871.000000	15.826723
870.000000	15.594843
869.000000	16.651985
868.000000	16.192876
867.000000	16.519276
866.000000	16.039580
865.000000	15.261844
864.000000	15.310275
863.000000	16.218250
862.000000	16.036811
861.000000	15.165160
860.000000	14.654804
859.000000	14.734486
858.000000	14.656457
857.000000	14.411228
856.000000	14.690920
855.000000	14.852891
854.000000	14.761993
853.000000	15.071067
852.000000	15.200329
851.000000	14.937365
850.000000	14.944108
849.000000	14.918460
848.000000	14.917601
847.000000	14.941424
846.000000	14.935646
845.000000	15.012983
844.000000	15.167535
843.000000	14.975937
842.000000	15.080717
841.000000	15.129863
840.000000	15.167151
839.000000	15.157026
838.000000	15.213845
837.000000	15.286322
836.000000	15.327877
835.000000	15.281993
834.000000	15.302310
833.000000	15.250181
832.000000	15.324383
831.000000	15.359568
830.000000	15.386541
829.000000	15.319268
828.000000	15.381936
827.000000	15.381971
826.000000	15.393274
825.000000	15.488416
824.000000	15.443616
823.000000	15.324313
822.000000	15.497584
821.000000	15.481107
820.000000	15.522691
819.000000	15.531057
818.000000	15.582675
817.000000	15.544795
816.000000	15.543721
815.000000	15.545368
814.000000	15.572703
813.000000	15.697410
812.000000	15.658350
811.000000	15.686498
810.000000	15.656800
809.000000	15.762133
808.000000	15.718605
807.000000	15.692098
806.000000	15.724578
805.000000	15.736205
804.000000	15.743490
803.000000	15.732220
802.000000	15.769430
801.000000	15.822132
800.000000	15.811279
799.000000	15.787232
798.000000	15.845575
797.000000	15.822533
796.000000	15.861564
795.000000	15.839264
794.000000	15.926414
793.000000	15.859555
792.000000	15.969930
791.000000	15.871318
790.000000	15.956256
789.000000	15.962136
788.000000	15.939328
787.000000	15.969121
786.000000	15.985234
785.000000	16.042535
784.000000	15.999522
783.000000	16.061718
782.000000	16.076851
781.000000	16.116621
780.000000	16.059684
779.000000	16.092481
778.000000	16.069487
777.000000	16.147824
776.000000	16.164564
775.000000	16.129392
774.000000	16.193287
773.000000	16.245160
772.000000	16.223853
771.000000	16.209813
770.000000	16.199589
769.000000	16.243851
768.000000	16.322437
767.000000	16.325482
766.000000	16.311579
765.000000	16.331196
764.000000	16.305233
763.000000	16.345906
762.000000	16.345718
761.000000	16.372538
760.000000	16.371520
759.000000	16.386681
758.000000	16.389662
757.000000	16.461371
756.000000	16.411830
755.000000	16.498672
754.000000	16.471570
753.000000	16.488532
752.000000	16.499318
751.000000	16.479043
750.000000	16.548514
749.000000	16.580553
748.000000	16.545694
747.000000	16.617703
746.000000	16.642632
745.000000	16.670092
744.000000	16.661611
743.000000	16.699021
742.000000	16.719374
741.000000	16.723339
740.000000	16.747308
739.000000	16.787035
738.000000	16.765866
737.000000	16.812256
736.000000	16.811482
735.000000	16.824300
734.000000	16.821395
733.000000	16.816747
732.000000	16.834918
731.000000	16.900595
730.000000	16.927429
729.000000	16.941310
728.000000	16.918272
727.000000	16.949309
726.000000	16.976455
725.000000	16.969147
724.000000	16.978527
723.000000	17.023075
722.000000	17.070137
721.000000	17.100153
720.000000	17.074933
719.000000	17.086574
718.000000	17.108306
717.000000	17.103618
716.000000	17.148613
715.000000	17.184108
714.000000	17.180350
713.000000	17.203587
712.000000	17.214920
711.000000	17.241061
710.000000	17.260286
709.000000	17.274600
708.000000	17.283472
707.000000	17.309280
706.000000	17.309758
705.000000	17.370887
704.000000	17.404358
703.000000	17.392740
702.000000	17.424607
701.000000	17.462483
700.000000	17.455327
699.000000	17.461518
698.000000	17.493955
697.000000	17.526290
696.000000	17.545631
695.000000	17.541471
694.000000	17.559777
693.000000	17.617773
692.000000	17.627674
691.000000	17.636078
690.000000	17.659646
689.000000	17.661598
688.000000	17.696199
687.000000	17.720460
686.000000	17.750680
685.000000	17.761924
684.000000	17.785988
683.000000	17.807092
682.000000	17.818987
681.000000	17.850813
680.000000	17.874874
679.000000	17.909110
678.000000	17.934984
677.000000	17.938784
676.000000	17.932424
675.000000	17.963005
674.000000	18.004787
673.000000	18.010717
672.000000	18.044381
671.000000	18.078775
670.000000	18.069994
669.000000	18.080898
668.000000	18.152816
667.000000	18.185406
666.000000	18.174815
665.000000	18.191604
664.000000	18.254881
663.000000	18.280581
662.000000	18.260556
661.000000	18.271534
660.000000	18.299069
659.000000	18.310491
658.000000	18.348561
657.000000	18.358872
656.000000	18.370586
655.000000	18.405643
654.000000	18.433805
653.000000	18.473279
652.000000	18.490898
651.000000	18.503548
650.000000	18.505209
649.000000	18.511687
648.000000	18.546160
647.000000	18.598289
646.000000	18.636656
645.000000	18.657996
644.000000	18.673426
643.000000	18.667880
642.000000	18.684737
641.000000	18.733201
640.000000	18.776559
639.000000	18.789447
638.000000	18.787068
637.000000	18.813344
636.000000	18.843649
635.000000	18.855975
634.000000	18.862446
633.000000	18.890785
632.000000	18.949205
631.000000	18.985367
630.000000	18.985105
629.000000	18.988296
628.000000	19.018576
627.000000	19.068213
626.000000	19.092553
625.000000	19.099104
624.000000	19.113402
623.000000	19.162669
622.000000	19.183949
621.000000	19.210028
620.000000	19.219142
619.000000	19.252671
618.000000	19.279066
617.000000	19.304253
616.000000	19.335615
615.000000	19.340024
614.000000	19.363150
613.000000	19.390500
612.000000	19.431888
611.000000	19.453242
610.000000	19.453870
609.000000	19.483366
608.000000	19.509314
607.000000	19.535026
606.000000	19.525762
605.000000	19.541325
604.000000	19.573298
603.000000	19.607490
602.000000	19.605007
601.000000	19.613270
600.000000	19.642058
599.000000	19.643280
598.000000	19.662195
597.000000	19.638983
596.000000	19.642420
595.000000	19.652147
594.000000	19.645813
593.000000	19.600313
592.000000	19.572712
591.000000	19.561223
590.000000	19.520278
589.000000	19.479195
588.000000	19.442988
587.000000	19.377690
586.000000	19.333300
585.000000	19.249524
584.000000	19.192785
583.000000	19.142647
582.000000	19.085520
581.000000	19.039696
580.000000	19.002599
579.000000	18.970990
578.000000	18.940088
577.000000	18.879305
576.000000	18.874828
575.000000	18.897093
574.000000	18.846165
573.000000	18.862359
572.000000	18.862359
571.000000	18.881652
570.000000	18.905144
569.000000	18.905580
568.000000	18.897049
567.000000	18.936120
566.000000	18.971165
565.000000	18.989171
564.000000	18.990614
563.000000	19.044080
562.000000	19.062023
561.000000	19.105834
560.000000	19.098049
559.000000	19.103371
558.000000	19.158831
557.000000	19.188543
556.000000	19.237693
555.000000	19.271566
554.000000	19.298253
553.000000	19.331030
552.000000	19.368055
551.000000	19.396483
550.000000	19.441510
549.000000	19.478253
548.000000	19.518660
547.000000	19.524638
546.000000	19.582855
545.000000	19.605549
544.000000	19.632834
543.000000	19.679679
542.000000	19.724909
541.000000	19.759593
540.000000	19.771790
539.000000	19.818784
538.000000	19.862916
537.000000	19.881859
536.000000	19.893857
535.000000	19.908154
534.000000	19.941692
533.000000	19.973216
532.000000	20.000875
531.000000	20.029910
530.000000	20.052522
529.000000	20.104348
528.000000	20.118102
527.000000	20.137289
526.000000	20.182177
525.000000	20.202960
524.000000	20.228096
523.000000	20.281310
522.000000	20.315569
521.000000	20.328625
520.000000	20.381728
519.000000	20.418884
518.000000	20.453611
517.000000	20.485945
516.000000	20.567287
515.000000	20.595721
514.000000	20.653754
513.000000	20.713238
512.000000	20.753436
511.000000	20.783898
510.000000	20.835312
509.000000	20.855327
508.000000	20.895030
507.000000	20.943005
506.000000	20.940787
505.000000	20.980460
504.000000	20.989157
503.000000	20.983552
502.000000	20.912984
501.000000	20.913225
500.000000	20.882044
499.000000	20.834784
498.000000	20.731179
497.000000	20.676499
496.000000	20.615554
495.000000	20.494249
494.000000	20.394309
493.000000	20.288877
492.000000	20.198169
491.000000	20.112219
490.000000	20.039321
489.000000	19.961262
488.000000	19.887125
487.000000	19.825950
486.000000	19.775023
485.000000	19.720322
484.000000	19.673018
483.000000	19.655179
482.000000	19.638260
481.000000	19.645044
480.000000	19.639255
479.000000	19.654319
478.000000	19.684120
477.000000	19.692643
476.000000	19.730632
475.000000	19.772382
474.000000	19.825858
473.000000	19.860309
472.000000	19.899996
471.000000	19.956483
470.000000	20.019305
469.000000	20.061389
468.000000	20.099025
467.000000	20.164664
466.000000	20.228422
465.000000	20.287755
464.000000	20.360011
463.000000	20.396376
462.000000	20.449797
461.000000	20.513747
460.000000	20.562599
459.000000	20.590647
458.000000	20.647953
457.000000	20.691454
456.000000	20.710091
455.000000	20.760653
454.000000	20.775190
453.000000	20.818287
452.000000	20.839870
451.000000	20.916836
450.000000	20.955354
449.000000	20.970172
448.000000	21.035459
447.000000	21.067839
446.000000	21.096140
445.000000	21.159724
444.000000	21.177369
443.000000	21.208356
442.000000	21.255974
441.000000	21.302815
440.000000	21.347843
439.000000	21.399962
438.000000	21.471135
437.000000	21.514388
436.000000	21.576699
435.000000	21.646964
434.000000	21.662222
433.000000	21.758001
432.000000	21.836046
431.000000	21.886383
430.000000	21.948710
429.000000	21.993938
428.000000	22.075269
427.000000	22.125037
426.000000	22.150932
425.000000	22.197394
424.000000	22.266912
423.000000	22.337934
422.000000	22.375461
421.000000	22.434790
420.000000	22.491789
419.000000	22.567580
418.000000	22.633254
417.000000	22.693109
416.000000	22.768426
415.000000	22.796648
414.000000	22.843939
413.000000	22.891698
412.000000	22.931792
411.000000	22.953399
410.000000	22.956993
409.000000	22.972010
408.000000	22.954297
407.000000	22.912580
406.000000	22.822068
405.000000	22.657709
404.000000	22.513603
403.000000	22.312539
402.000000	22.055606
401.000000	21.785624
400.000000	21.430238
399.000000	21.021272
398.000000	20.618924
397.000000	20.138494
396.000000	19.562709
395.000000	18.964788
394.000000	18.378370
393.000000	17.747819
392.000000	17.100389
391.000000	16.465996
390.000000	15.861491
389.000000	15.240212
388.000000	14.624162
387.000000	14.060864
386.000000	13.539262
385.000000	13.039922
384.000000	12.573118
383.000000	12.163904
382.000000	11.772508
381.000000	11.416895
380.000000	11.089526
379.000000	10.763339
378.000000	10.384629
377.000000	10.051433
376.000000	9.793186
375.000000	9.579437
374.000000	9.388258
373.000000	9.191682
372.000000	8.970838
371.000000	8.799601
370.000000	8.637260
369.000000	8.462487
368.000000	8.304816
367.000000	8.109517
366.000000	7.978220
365.000000	7.852447
364.000000	7.684542
363.000000	7.562232
362.000000	7.461858
361.000000	7.365903
360.000000	7.280698
359.000000	7.155467
358.000000	7.035290
357.000000	6.969297
356.000000	6.898029
355.000000	6.796855
354.000000	6.698291
353.000000	6.616556
352.000000	6.560773
351.000000	6.492127
350.000000	6.468462
349.000000	6.432577
348.000000	6.363499
347.000000	6.308542
346.000000	6.291903
345.000000	6.258194
344.000000	6.229913
343.000000	6.193783
342.000000	6.212866
341.000000	6.203674
340.000000	6.178499
339.000000	6.172797
338.000000	6.188794
337.000000	6.202575
336.000000	6.222186
335.000000	6.200775
334.000000	6.196779
333.000000	6.261336
332.000000	6.265735
331.000000	6.284070
330.000000	6.293786
329.000000	6.294699
328.000000	6.346686
327.000000	6.414665
326.000000	6.403818
325.000000	6.421360
324.000000	6.421227
323.000000	6.478225
322.000000	6.468164
321.000000	6.577487
320.000000	6.543378
319.000000	6.432799
318.000000	6.422602
317.000000	6.475182
316.000000	6.522709
315.000000	6.553526
314.000000	6.536677
313.000000	6.559096
312.000000	6.583078
311.000000	6.608212
310.000000	6.577230
309.000000	6.621662
308.000000	6.645811
307.000000	6.693604
306.000000	6.719454
305.000000	6.661791
304.000000	6.619832
303.000000	6.616449
302.000000	6.645520
301.000000	6.626283
300.000000	6.626878
299.000000	6.616373
298.000000	6.612992
297.000000	6.606919
296.000000	6.600199
295.000000	6.641635
294.000000	6.621204
293.000000	6.589038
292.000000	6.586353
291.000000	6.555986
290.000000	6.564792
289.000000	6.558960
288.000000	6.521523
287.000000	6.575700
286.000000	6.561090
285.000000	6.605733
284.000000	6.593439
283.000000	6.590677
282.000000	6.547598
281.000000	6.621494
280.000000	6.657252
279.000000	6.650894
278.000000	6.673336
277.000000	6.655597
276.000000	6.663816
275.000000	6.681716
274.000000	6.654662
273.000000	6.689290
272.000000	6.691215
271.000000	6.717118
270.000000	6.738776
269.000000	6.694220
268.000000	6.734432
267.000000	6.755772
266.000000	6.788221
265.000000	6.758402
264.000000	6.813935
263.000000	6.798890
262.000000	6.820292
261.000000	6.825351
260.000000	6.825304
259.000000	6.813355
258.000000	6.826923
257.000000	6.843464
256.000000	6.833245
255.000000	6.822099
254.000000	6.862131
253.000000	6.878789
252.000000	6.861894
251.000000	6.932438
250.000000	6.913723
249.000000	6.901429
248.000000	6.913246
247.000000	6.906373
246.000000	6.963859
245.000000	6.996261
244.000000	6.967228
243.000000	7.010645
242.000000	7.014440
241.000000	6.996148
240.000000	7.007805
239.000000	7.014698
238.000000	7.037331
237.000000	7.012857
236.000000	7.074700
235.000000	7.075710
234.000000	7.156143
233.000000	7.121705
232.000000	7.123132
231.000000	7.127611
230.000000	7.168825
229.000000	7.195765
228.000000	7.227831
227.000000	7.226367
226.000000	7.273392
225.000000	7.326693
224.000000	7.334356
223.000000	7.345037
222.000000	7.331891
221.000000	7.454182
220.000000	7.424377
219.000000	7.463130
218.000000	7.518860
217.000000	7.559481
216.000000	7.553531
215.000000	7.576803
214.000000	7.587662
213.000000	7.650873
212.000000	7.710473
211.000000	7.720670
210.000000	7.790404
209.000000	7.862180
208.000000	7.897961
207.000000	7.909172
206.000000	7.978734
205.000000	8.084162
204.000000	8.119252
203.000000	8.163962
202.000000	8.183348
201.000000	8.294725
200.000000	8.533791
199.000000	8.640721
198.000000	8.794456
197.000000	8.851278
196.000000	8.898422
195.000000	9.062145
194.000000	9.219874
193.000000	9.818338
192.000000	10.629994
191.000000	11.269795
190.000000	14.423113
189.000000	22.675872
188.000000	42.242732
187.000000	82.815380
186.000000	97.127453
185.000000	96.211725
184.000000	97.439041
183.000000	93.531952
182.000000	99.122444
181.000000	105.520053
180.000000	111.034771
179.000000	107.556832
178.000000	101.343757
177.000000	103.219322
176.000000	103.320619
175.000000	92.245035
