PE UV       SUBTECH     SPECTRUM    ASCII       PEDS        4.00        
   -1
Sample3.Sample.Raw.ASC
25/05/30
11:35:57.00
25/06/06
09:00:45.00
tom jordan
DDQ R1
175.000000
1
Lambda 1050
1050L1807051
PerkinElmer UV WinLab 6.4.0.973 / 2.02.06 Lambda 900 UV/VIS/NIR, Jan 28 2016 16:58:34

0
0
3350
0
0
UV/VIS
1
1
1
RBeamAtt,SBeamAtt,150mm sphere / downward view, WB InGaAs Detector
0
0
0
0
Program
Program
3350
3350
3350
0
1
 
 
 
0
 
860.8
319.2
860.8
Front
100
 
S:100 R:100
0
0
0
0
 
0
 
 
 
0
 
 
0
0
0
0
0
 
 
 
 
0
0


0
0
#HDR
-1
-1
#GR
nm
%T
1.0
0.0
2000.000000
-1.000000
1826
8
101.462369
6.139528
#DATA
2000.000000	10.149625
1999.000000	9.984286
1998.000000	10.091576
1997.000000	10.096713
1996.000000	10.064032
1995.000000	10.200043
1994.000000	10.238728
1993.000000	10.168432
1992.000000	9.920579
1991.000000	9.930978
1990.000000	10.090182
1989.000000	9.864566
1988.000000	9.853488
1987.000000	9.975553
1986.000000	10.075579
1985.000000	9.903370
1984.000000	9.746395
1983.000000	9.974497
1982.000000	10.202533
1981.000000	10.170797
1980.000000	9.977874
1979.000000	10.353114
1978.000000	9.939831
1977.000000	9.964052
1976.000000	9.850766
1975.000000	10.026653
1974.000000	10.072586
1973.000000	9.866338
1972.000000	9.869360
1971.000000	10.172132
1970.000000	10.216779
1969.000000	9.849859
1968.000000	9.943654
1967.000000	9.981114
1966.000000	9.944959
1965.000000	10.090647
1964.000000	10.140982
1963.000000	10.211440
1962.000000	9.893068
1961.000000	10.260937
1960.000000	10.030579
1959.000000	9.966186
1958.000000	9.968114
1957.000000	9.860070
1956.000000	10.053355
1955.000000	10.232129
1954.000000	10.184085
1953.000000	10.104178
1952.000000	9.681151
1951.000000	9.922635
1950.000000	10.004606
1949.000000	10.004929
1948.000000	9.939076
1947.000000	9.934042
1946.000000	10.121363
1945.000000	10.143667
1944.000000	10.196920
1943.000000	10.278459
1942.000000	10.220473
1941.000000	10.299686
1940.000000	10.246912
1939.000000	10.082402
1938.000000	9.948440
1937.000000	9.821753
1936.000000	9.722300
1935.000000	9.870542
1934.000000	9.724516
1933.000000	9.985021
1932.000000	9.957653
1931.000000	10.244506
1930.000000	10.139301
1929.000000	10.123880
1928.000000	9.976197
1927.000000	10.354449
1926.000000	10.425022
1925.000000	10.362487
1924.000000	10.115073
1923.000000	9.866838
1922.000000	9.902617
1921.000000	9.944547
1920.000000	9.771090
1919.000000	9.793141
1918.000000	10.122458
1917.000000	9.792149
1916.000000	9.901591
1915.000000	10.100805
1914.000000	10.231493
1913.000000	10.231493
1912.000000	10.060556
1911.000000	10.264410
1910.000000	10.301560
1909.000000	10.488708
1908.000000	10.302794
1907.000000	10.439651
1906.000000	10.550426
1905.000000	10.178060
1904.000000	10.500670
1903.000000	10.598271
1902.000000	10.554095
1901.000000	10.712011
1900.000000	10.799857
1899.000000	10.581543
1898.000000	10.501879
1897.000000	10.608818
1896.000000	10.593342
1895.000000	10.484796
1894.000000	10.545301
1893.000000	10.562847
1892.000000	10.387236
1891.000000	10.257913
1890.000000	10.178763
1889.000000	10.327543
1888.000000	10.357215
1887.000000	10.345036
1886.000000	10.320459
1885.000000	10.266112
1884.000000	10.188330
1883.000000	10.293949
1882.000000	10.411565
1881.000000	10.142640
1880.000000	10.237691
1879.000000	10.302414
1878.000000	10.245968
1877.000000	10.356476
1876.000000	10.490616
1875.000000	10.388552
1874.000000	10.383601
1873.000000	10.480790
1872.000000	10.445807
1871.000000	10.381234
1870.000000	10.395946
1869.000000	10.492404
1868.000000	10.212240
1867.000000	10.080986
1866.000000	10.237502
1865.000000	10.342178
1864.000000	10.350087
1863.000000	10.442801
1862.000000	10.531882
1861.000000	10.371916
1860.000000	10.270155
1859.000000	10.246275
1858.000000	10.406795
1857.000000	10.264954
1856.000000	10.217626
1855.000000	10.377841
1854.000000	10.269942
1853.000000	10.110695
1852.000000	10.317916
1851.000000	10.268287
1850.000000	10.256661
1849.000000	10.325070
1848.000000	10.311076
1847.000000	10.368764
1846.000000	10.281015
1845.000000	10.249767
1844.000000	10.360722
1843.000000	10.207021
1842.000000	10.210453
1841.000000	10.289375
1840.000000	10.251490
1839.000000	10.094481
1838.000000	10.182678
1837.000000	10.348085
1836.000000	10.233118
1835.000000	10.244553
1834.000000	10.123531
1833.000000	10.254583
1832.000000	10.245496
1831.000000	10.192155
1830.000000	10.130923
1829.000000	9.981780
1828.000000	10.194384
1827.000000	10.315256
1826.000000	10.302722
1825.000000	10.235192
1824.000000	10.313807
1823.000000	10.284519
1822.000000	10.364802
1821.000000	10.146751
1820.000000	10.254205
1819.000000	10.435758
1818.000000	10.290133
1817.000000	10.142196
1816.000000	10.201664
1815.000000	10.322740
1814.000000	10.189151
1813.000000	10.265356
1812.000000	10.411205
1811.000000	10.230833
1810.000000	10.341702
1809.000000	10.222591
1808.000000	10.127867
1807.000000	10.055068
1806.000000	10.261551
1805.000000	10.236371
1804.000000	10.233213
1803.000000	10.222803
1802.000000	10.352947
1801.000000	10.231328
1800.000000	10.198657
1799.000000	10.268736
1798.000000	10.141379
1797.000000	10.244647
1796.000000	10.272970
1795.000000	10.248162
1794.000000	10.344488
1793.000000	10.287646
1792.000000	10.292740
1791.000000	10.297671
1790.000000	10.333061
1789.000000	10.246440
1788.000000	10.262023
1787.000000	10.157504
1786.000000	10.200137
1785.000000	10.605545
1784.000000	10.367093
1783.000000	10.310222
1782.000000	10.254630
1781.000000	10.323002
1780.000000	10.419959
1779.000000	10.311789
1778.000000	10.522695
1777.000000	10.376120
1776.000000	10.205164
1775.000000	10.387284
1774.000000	10.311599
1773.000000	10.488612
1772.000000	10.394222
1771.000000	10.431842
1770.000000	10.282980
1769.000000	10.381928
1768.000000	10.264150
1767.000000	10.465284
1766.000000	10.513299
1765.000000	10.358622
1764.000000	10.515841
1763.000000	10.489433
1762.000000	10.396257
1761.000000	10.374066
1760.000000	10.292242
1759.000000	10.364444
1758.000000	10.591440
1757.000000	10.628696
1756.000000	10.416864
1755.000000	10.528900
1754.000000	10.516616
1753.000000	10.558738
1752.000000	10.454758
1751.000000	10.474252
1750.000000	10.576160
1749.000000	10.381952
1748.000000	10.597270
1747.000000	10.414538
1746.000000	10.452231
1745.000000	10.351255
1744.000000	10.516567
1743.000000	10.599173
1742.000000	10.491148
1741.000000	10.477773
1740.000000	10.450161
1739.000000	10.535084
1738.000000	10.469453
1737.000000	10.507248
1736.000000	10.451894
1735.000000	10.371271
1734.000000	10.439772
1733.000000	10.498494
1732.000000	10.400854
1731.000000	10.532537
1730.000000	10.516930
1729.000000	10.591440
1728.000000	10.521775
1727.000000	10.480814
1726.000000	10.506910
1725.000000	10.586515
1724.000000	10.439291
1723.000000	10.619621
1722.000000	10.582396
1721.000000	10.581031
1720.000000	10.520370
1719.000000	10.618349
1718.000000	10.714576
1717.000000	10.662769
1716.000000	10.679231
1715.000000	10.613460
1714.000000	10.611823
1713.000000	10.572167
1712.000000	10.502677
1711.000000	10.596343
1710.000000	10.623803
1709.000000	10.605350
1708.000000	10.524489
1707.000000	10.603226
1706.000000	10.590830
1705.000000	10.607572
1704.000000	10.615293
1703.000000	10.616613
1702.000000	10.603177
1701.000000	10.632539
1700.000000	10.659848
1699.000000	10.638123
1698.000000	10.561680
1697.000000	10.579009
1696.000000	10.655676
1695.000000	10.634768
1694.000000	10.633347
1693.000000	10.664709
1692.000000	10.635625
1691.000000	10.604568
1690.000000	10.550888
1689.000000	10.466513
1688.000000	10.631462
1687.000000	10.699537
1686.000000	10.667312
1685.000000	10.604861
1684.000000	10.635527
1683.000000	10.674339
1682.000000	10.662082
1681.000000	10.666723
1680.000000	10.646258
1679.000000	10.671439
1678.000000	10.597904
1677.000000	10.610577
1676.000000	10.631609
1675.000000	10.497648
1674.000000	10.520830
1673.000000	10.629259
1672.000000	10.638931
1671.000000	10.684913
1670.000000	10.720005
1669.000000	10.690820
1668.000000	10.717735
1667.000000	10.678912
1666.000000	10.718179
1665.000000	10.717364
1664.000000	10.641553
1663.000000	10.636212
1662.000000	10.701336
1661.000000	10.709520
1660.000000	10.704959
1659.000000	10.642190
1658.000000	10.579545
1657.000000	10.668958
1656.000000	10.727833
1655.000000	10.732478
1654.000000	10.777996
1653.000000	10.691780
1652.000000	10.745039
1651.000000	10.813642
1650.000000	10.826947
1649.000000	10.870862
1648.000000	10.826947
1647.000000	10.724696
1646.000000	10.737026
1645.000000	10.760737
1644.000000	10.725017
1643.000000	10.736729
1642.000000	10.759374
1641.000000	10.752959
1640.000000	10.783208
1639.000000	10.780527
1638.000000	10.765718
1637.000000	10.740018
1636.000000	10.774894
1635.000000	10.848058
1634.000000	10.790188
1633.000000	10.736507
1632.000000	10.850606
1631.000000	10.893113
1630.000000	10.761703
1629.000000	10.725017
1628.000000	10.721536
1627.000000	10.739746
1626.000000	10.789219
1625.000000	10.811675
1624.000000	10.828418
1623.000000	10.886769
1622.000000	10.946770
1621.000000	10.847234
1620.000000	10.835202
1619.000000	10.866433
1618.000000	10.828916
1617.000000	10.838820
1616.000000	10.815610
1615.000000	10.763438
1614.000000	10.862530
1613.000000	10.909981
1612.000000	10.888348
1611.000000	10.930801
1610.000000	10.930550
1609.000000	10.924234
1608.000000	10.908424
1607.000000	10.827720
1606.000000	10.797818
1605.000000	10.842689
1604.000000	10.840542
1603.000000	10.896474
1602.000000	10.874167
1601.000000	10.948938
1600.000000	10.808091
1599.000000	10.853230
1598.000000	10.905661
1597.000000	10.867709
1596.000000	10.903602
1595.000000	10.987275
1594.000000	10.905485
1593.000000	10.847958
1592.000000	10.854429
1591.000000	10.840342
1590.000000	10.946165
1589.000000	11.067104
1588.000000	10.978550
1587.000000	10.968519
1586.000000	10.900038
1585.000000	10.887696
1584.000000	10.939413
1583.000000	10.914403
1582.000000	11.020645
1581.000000	11.015139
1580.000000	11.109487
1579.000000	11.022853
1578.000000	10.964126
1577.000000	11.030216
1576.000000	11.043608
1575.000000	11.030851
1574.000000	10.906063
1573.000000	10.994817
1572.000000	10.973091
1571.000000	10.939413
1570.000000	10.955898
1569.000000	11.040583
1568.000000	11.030774
1567.000000	11.001300
1566.000000	11.063181
1565.000000	11.097292
1564.000000	11.218325
1563.000000	11.131944
1562.000000	11.026762
1561.000000	11.050680
1560.000000	10.983784
1559.000000	11.052919
1558.000000	11.003174
1557.000000	11.087841
1556.000000	11.045618
1555.000000	11.008471
1554.000000	10.972662
1553.000000	11.101764
1552.000000	11.190822
1551.000000	11.116933
1550.000000	11.074318
1549.000000	11.087382
1548.000000	11.016027
1547.000000	11.098365
1546.000000	11.145845
1545.000000	11.096908
1544.000000	11.114860
1543.000000	11.151955
1542.000000	11.158633
1541.000000	11.119135
1540.000000	11.152212
1539.000000	11.187396
1538.000000	11.127638
1537.000000	11.147667
1536.000000	11.146589
1535.000000	11.081690
1534.000000	11.091927
1533.000000	11.192858
1532.000000	11.183816
1531.000000	11.189766
1530.000000	11.157066
1529.000000	11.281270
1528.000000	11.194044
1527.000000	11.174420
1526.000000	11.193915
1525.000000	11.186520
1524.000000	11.223363
1523.000000	11.297751
1522.000000	11.339398
1521.000000	11.314933
1520.000000	11.205778
1519.000000	11.244859
1518.000000	11.210939
1517.000000	11.203610
1516.000000	11.189379
1515.000000	11.229774
1514.000000	11.238336
1513.000000	11.225353
1512.000000	11.269016
1511.000000	11.288624
1510.000000	11.182631
1509.000000	11.231894
1508.000000	11.207119
1507.000000	11.182374
1506.000000	11.248847
1505.000000	11.267797
1504.000000	11.289066
1503.000000	11.264995
1502.000000	11.341957
1501.000000	11.264943
1500.000000	11.283219
1499.000000	11.409064
1498.000000	11.267693
1497.000000	11.320223
1496.000000	11.364988
1495.000000	11.435812
1494.000000	11.354238
1493.000000	11.360645
1492.000000	11.344177
1491.000000	11.430362
1490.000000	11.394598
1489.000000	11.374335
1488.000000	11.389535
1487.000000	11.455499
1486.000000	11.431389
1485.000000	11.428204
1484.000000	11.344020
1483.000000	11.479924
1482.000000	11.412295
1481.000000	11.365774
1480.000000	11.293356
1479.000000	11.352774
1478.000000	11.450172
1477.000000	11.497436
1476.000000	11.528346
1475.000000	11.435364
1474.000000	11.389220
1473.000000	11.469672
1472.000000	11.445401
1471.000000	11.450936
1470.000000	11.351885
1469.000000	11.447298
1468.000000	11.548485
1467.000000	11.558381
1466.000000	11.575933
1465.000000	11.504957
1464.000000	11.500137
1463.000000	11.521367
1462.000000	11.524471
1461.000000	11.559499
1460.000000	11.469883
1459.000000	11.505354
1458.000000	11.500799
1457.000000	11.481193
1456.000000	11.475827
1455.000000	11.454417
1454.000000	11.498839
1453.000000	11.527390
1452.000000	11.610689
1451.000000	11.582038
1450.000000	11.530045
1449.000000	11.528001
1448.000000	11.567566
1447.000000	11.622780
1446.000000	11.591536
1445.000000	11.625028
1444.000000	11.604996
1443.000000	11.596315
1442.000000	11.621227
1441.000000	11.647749
1440.000000	11.669816
1439.000000	11.603473
1438.000000	11.624626
1437.000000	11.632150
1436.000000	11.593779
1435.000000	11.576386
1434.000000	11.610502
1433.000000	11.629579
1432.000000	11.613283
1431.000000	11.678229
1430.000000	11.640001
1429.000000	11.646676
1428.000000	11.676401
1427.000000	11.684254
1426.000000	11.696475
1425.000000	11.592177
1424.000000	11.618472
1423.000000	11.670434
1422.000000	11.672315
1421.000000	11.706040
1420.000000	11.758150
1419.000000	11.737592
1418.000000	11.659207
1417.000000	11.647293
1416.000000	11.707280
1415.000000	11.757175
1414.000000	11.732053
1413.000000	11.767874
1412.000000	11.804348
1411.000000	11.768876
1410.000000	11.772698
1409.000000	11.779124
1408.000000	11.792938
1407.000000	11.779233
1406.000000	11.733863
1405.000000	11.741484
1404.000000	11.785988
1403.000000	11.800081
1402.000000	11.750328
1401.000000	11.765002
1400.000000	11.778121
1399.000000	11.755362
1398.000000	11.825813
1397.000000	11.860254
1396.000000	11.857715
1395.000000	11.798886
1394.000000	11.768199
1393.000000	11.820123
1392.000000	11.833222
1391.000000	11.846908
1390.000000	11.848463
1389.000000	11.899919
1388.000000	11.915465
1387.000000	11.867849
1386.000000	11.894495
1385.000000	11.871894
1384.000000	11.821185
1383.000000	11.865526
1382.000000	11.925539
1381.000000	11.929713
1380.000000	11.855967
1379.000000	11.816803
1378.000000	11.905400
1377.000000	11.941613
1376.000000	11.871593
1375.000000	11.923040
1374.000000	11.964567
1373.000000	11.975620
1372.000000	11.983316
1371.000000	12.003392
1370.000000	11.998860
1369.000000	11.933175
1368.000000	11.933587
1367.000000	11.973028
1366.000000	11.986020
1365.000000	11.924358
1364.000000	11.921695
1363.000000	11.964567
1362.000000	12.012517
1361.000000	12.059103
1360.000000	12.017635
1359.000000	12.012489
1358.000000	11.994441
1357.000000	11.994082
1356.000000	12.028182
1355.000000	12.084314
1354.000000	12.078973
1353.000000	11.967268
1352.000000	11.972918
1351.000000	11.990078
1350.000000	12.042177
1349.000000	12.069159
1348.000000	12.093221
1347.000000	12.077582
1346.000000	12.052579
1345.000000	12.047862
1344.000000	12.046614
1343.000000	12.046808
1342.000000	12.106567
1341.000000	12.074829
1340.000000	12.027296
1339.000000	12.011659
1338.000000	12.085288
1337.000000	12.140791
1336.000000	12.104922
1335.000000	12.114542
1334.000000	12.116355
1333.000000	12.045200
1332.000000	12.107375
1331.000000	12.059880
1330.000000	12.079112
1329.000000	12.118615
1328.000000	12.137046
1327.000000	12.169563
1326.000000	12.149293
1325.000000	12.210628
1324.000000	12.176375
1323.000000	12.153238
1322.000000	12.215212
1321.000000	12.199471
1320.000000	12.190177
1319.000000	12.159172
1318.000000	12.241933
1317.000000	12.239481
1316.000000	12.197954
1315.000000	12.201803
1314.000000	12.230550
1313.000000	12.212681
1312.000000	12.215549
1311.000000	12.289692
1310.000000	12.230241
1309.000000	12.276540
1308.000000	12.262782
1307.000000	12.235733
1306.000000	12.262415
1305.000000	12.260241
1304.000000	12.296287
1303.000000	12.289352
1302.000000	12.333348
1301.000000	12.295579
1300.000000	12.284882
1299.000000	12.283807
1298.000000	12.315045
1297.000000	12.343406
1296.000000	12.306824
1295.000000	12.343946
1294.000000	12.388365
1293.000000	12.368186
1292.000000	12.384258
1291.000000	12.358649
1290.000000	12.324293
1289.000000	12.341047
1288.000000	12.388879
1287.000000	12.343349
1286.000000	12.405435
1285.000000	12.394557
1284.000000	12.443456
1283.000000	12.451538
1282.000000	12.401037
1281.000000	12.459454
1280.000000	12.434806
1279.000000	12.416609
1278.000000	12.442195
1277.000000	12.466341
1276.000000	12.440763
1275.000000	12.430912
1274.000000	12.457532
1273.000000	12.416780
1272.000000	12.436610
1271.000000	12.465882
1270.000000	12.515264
1269.000000	12.547754
1268.000000	12.526623
1267.000000	12.581633
1266.000000	12.518722
1265.000000	12.563337
1264.000000	12.502590
1263.000000	12.461261
1262.000000	12.537473
1261.000000	12.498244
1260.000000	12.573176
1259.000000	12.544114
1258.000000	12.559027
1257.000000	12.573147
1256.000000	12.538974
1255.000000	12.606630
1254.000000	12.579634
1253.000000	12.595314
1252.000000	12.634411
1251.000000	12.609446
1250.000000	12.647859
1249.000000	12.646577
1248.000000	12.623652
1247.000000	12.650771
1246.000000	12.676168
1245.000000	12.668407
1244.000000	12.703342
1243.000000	12.663216
1242.000000	12.667707
1241.000000	12.689982
1240.000000	12.729461
1239.000000	12.728142
1238.000000	12.649431
1237.000000	12.724830
1236.000000	12.805042
1235.000000	12.703840
1234.000000	12.738579
1233.000000	12.711945
1232.000000	12.774061
1231.000000	12.740838
1230.000000	12.723512
1229.000000	12.800649
1228.000000	12.762977
1227.000000	12.754751
1226.000000	12.774620
1225.000000	12.783919
1224.000000	12.770738
1223.000000	12.807902
1222.000000	12.837043
1221.000000	12.835447
1220.000000	12.829006
1219.000000	12.836718
1218.000000	12.831281
1217.000000	12.816457
1216.000000	12.847038
1215.000000	12.871228
1214.000000	12.857928
1213.000000	12.891665
1212.000000	12.882970
1211.000000	12.933022
1210.000000	12.888400
1209.000000	12.850825
1208.000000	12.895970
1207.000000	12.921919
1206.000000	12.944909
1205.000000	12.950305
1204.000000	12.916534
1203.000000	12.948904
1202.000000	12.988949
1201.000000	12.954391
1200.000000	12.959254
1199.000000	12.990444
1198.000000	13.024228
1197.000000	13.026898
1196.000000	12.961582
1195.000000	13.006996
1194.000000	13.012658
1193.000000	13.015354
1192.000000	13.011279
1191.000000	13.012118
1190.000000	13.052719
1189.000000	13.083803
1188.000000	13.039892
1187.000000	13.044126
1186.000000	13.059032
1185.000000	13.117105
1184.000000	13.078984
1183.000000	13.043105
1182.000000	13.055966
1181.000000	13.078291
1180.000000	13.102223
1179.000000	13.073624
1178.000000	13.077267
1177.000000	13.103521
1176.000000	13.122362
1175.000000	13.151310
1174.000000	13.174829
1173.000000	13.192315
1172.000000	13.166732
1171.000000	13.186514
1170.000000	13.187911
1169.000000	13.186939
1168.000000	13.188609
1167.000000	13.202495
1166.000000	13.210462
1165.000000	13.206721
1164.000000	13.208515
1163.000000	13.229152
1162.000000	13.261511
1161.000000	13.265420
1160.000000	13.250004
1159.000000	13.243842
1158.000000	13.252597
1157.000000	13.282291
1156.000000	13.302400
1155.000000	13.297745
1154.000000	13.281313
1153.000000	13.292296
1152.000000	13.308742
1151.000000	13.301359
1150.000000	13.316497
1149.000000	13.311868
1148.000000	13.302829
1147.000000	13.322386
1146.000000	13.351652
1145.000000	13.368571
1144.000000	13.337118
1143.000000	13.352789
1142.000000	13.364693
1141.000000	13.356233
1140.000000	13.374391
1139.000000	13.420169
1138.000000	13.383355
1137.000000	13.408185
1136.000000	13.469423
1135.000000	13.447390
1134.000000	13.442901
1133.000000	13.406981
1132.000000	13.445223
1131.000000	13.489505
1130.000000	13.503209
1129.000000	13.499759
1128.000000	13.488697
1127.000000	13.485933
1126.000000	13.509865
1125.000000	13.554609
1124.000000	13.520850
1123.000000	13.519449
1122.000000	13.565725
1121.000000	13.558698
1120.000000	13.562352
1119.000000	13.545623
1118.000000	13.626019
1117.000000	13.577162
1116.000000	13.572286
1115.000000	13.568536
1114.000000	13.583041
1113.000000	13.650828
1112.000000	13.601193
1111.000000	13.627463
1110.000000	13.617958
1109.000000	13.579695
1108.000000	13.579601
1107.000000	13.627337
1106.000000	13.697869
1105.000000	13.664571
1104.000000	13.691562
1103.000000	13.659286
1102.000000	13.652337
1101.000000	13.701370
1100.000000	13.678800
1099.000000	13.674801
1098.000000	13.732955
1097.000000	13.758212
1096.000000	13.731374
1095.000000	13.748996
1094.000000	13.717975
1093.000000	13.735011
1092.000000	13.754664
1091.000000	13.789738
1090.000000	13.846245
1089.000000	13.794215
1088.000000	13.776694
1087.000000	13.843503
1086.000000	13.798154
1085.000000	13.785356
1084.000000	13.809374
1083.000000	13.891495
1082.000000	13.793485
1081.000000	13.864876
1080.000000	13.863440
1079.000000	13.876119
1078.000000	13.881519
1077.000000	13.943731
1076.000000	13.869442
1075.000000	13.893927
1074.000000	13.865738
1073.000000	13.953174
1072.000000	13.889321
1071.000000	13.949961
1070.000000	13.928745
1069.000000	13.928072
1068.000000	13.963844
1067.000000	13.878930
1066.000000	13.996937
1065.000000	13.990041
1064.000000	14.018353
1063.000000	14.002610
1062.000000	14.090974
1061.000000	13.979158
1060.000000	14.032078
1059.000000	14.035891
1058.000000	14.003352
1057.000000	14.069543
1056.000000	14.086691
1055.000000	14.099574
1054.000000	14.120075
1053.000000	14.076996
1052.000000	14.043521
1051.000000	14.084486
1050.000000	14.065753
1049.000000	14.068021
1048.000000	14.096328
1047.000000	14.027749
1046.000000	14.162894
1045.000000	14.160024
1044.000000	14.187112
1043.000000	14.164883
1042.000000	14.077807
1041.000000	14.065235
1040.000000	14.172420
1039.000000	14.127945
1038.000000	14.224139
1037.000000	14.150768
1036.000000	14.261953
1035.000000	14.202768
1034.000000	14.210979
1033.000000	14.113769
1032.000000	14.235116
1031.000000	14.306717
1030.000000	14.225056
1029.000000	14.347823
1028.000000	14.277725
1027.000000	14.218736
1026.000000	14.294238
1025.000000	14.255026
1024.000000	14.388682
1023.000000	14.240787
1022.000000	14.293843
1021.000000	14.372125
1020.000000	14.256043
1019.000000	14.335208
1018.000000	14.371033
1017.000000	14.346964
1016.000000	14.421884
1015.000000	14.398591
1014.000000	14.397464
1013.000000	14.382421
1012.000000	14.344453
1011.000000	14.416705
1010.000000	14.447543
1009.000000	14.439362
1008.000000	14.389941
1007.000000	14.523992
1006.000000	14.440559
1005.000000	14.462188
1004.000000	14.477348
1003.000000	14.543335
1002.000000	14.585859
1001.000000	14.485284
1000.000000	14.455463
999.000000	14.591569
998.000000	14.693762
997.000000	14.550637
996.000000	14.578572
995.000000	14.571860
994.000000	14.614434
993.000000	14.569277
992.000000	14.530816
991.000000	14.588781
990.000000	14.622142
989.000000	14.555362
988.000000	14.536873
987.000000	14.677666
986.000000	14.540221
985.000000	14.693085
984.000000	14.738694
983.000000	14.681857
982.000000	14.658550
981.000000	14.727126
980.000000	14.727397
979.000000	14.674726
978.000000	14.568807
977.000000	14.678646
976.000000	14.618203
975.000000	14.622512
974.000000	14.709469
973.000000	14.752275
972.000000	14.753532
971.000000	14.737710
970.000000	14.761823
969.000000	14.760600
968.000000	14.749829
967.000000	14.910596
966.000000	14.918701
965.000000	14.799805
964.000000	14.826273
963.000000	14.941837
962.000000	14.976627
961.000000	14.846566
960.000000	14.951336
959.000000	14.875720
958.000000	14.861444
957.000000	14.819140
956.000000	14.925401
955.000000	14.946620
954.000000	14.991773
953.000000	14.939945
952.000000	14.917567
951.000000	14.980731
950.000000	14.852515
949.000000	15.014435
948.000000	15.103583
947.000000	14.977316
946.000000	14.932069
945.000000	14.861889
944.000000	14.941390
943.000000	15.053691
942.000000	15.146211
941.000000	15.227198
940.000000	15.177946
939.000000	15.034085
938.000000	14.952025
937.000000	15.098124
936.000000	15.152385
935.000000	15.077662
934.000000	15.206666
933.000000	15.183364
932.000000	15.038863
931.000000	15.083496
930.000000	15.161389
929.000000	15.201169
928.000000	15.073670
927.000000	14.918220
926.000000	15.137843
925.000000	15.363282
924.000000	15.388738
923.000000	15.362857
922.000000	15.346947
921.000000	15.343555
920.000000	15.360912
919.000000	15.227829
918.000000	15.315599
917.000000	15.315917
916.000000	15.133312
915.000000	15.289807
914.000000	15.330948
913.000000	15.312778
912.000000	15.298576
911.000000	15.457704
910.000000	15.469348
909.000000	15.334549
908.000000	15.346347
907.000000	15.578190
906.000000	15.662389
905.000000	15.155979
904.000000	15.057955
903.000000	15.236387
902.000000	15.333948
901.000000	15.513007
900.000000	15.701639
899.000000	16.077999
898.000000	16.000001
897.000000	15.811825
896.000000	15.787487
895.000000	15.618381
894.000000	15.945495
893.000000	15.626582
892.000000	15.487952
891.000000	15.279882
890.000000	15.527266
889.000000	15.636156
888.000000	15.479110
887.000000	15.458416
886.000000	15.732944
885.000000	15.759811
884.000000	15.712236
883.000000	15.982474
882.000000	16.045010
881.000000	15.796214
880.000000	15.718207
879.000000	16.328451
878.000000	15.341224
877.000000	14.902187
876.000000	15.216578
875.000000	15.508507
874.000000	15.041287
873.000000	15.072594
872.000000	15.917212
871.000000	15.570588
870.000000	15.993886
869.000000	16.047301
868.000000	16.391964
867.000000	16.460385
866.000000	16.827787
865.000000	15.768305
864.000000	14.932241
863.000000	15.719763
862.000000	15.117919
861.000000	14.875035
860.000000	15.059862
859.000000	14.883909
858.000000	14.728075
857.000000	14.431817
856.000000	14.623186
855.000000	14.713060
854.000000	14.715364
853.000000	14.881167
852.000000	14.825078
851.000000	14.629585
850.000000	14.725397
849.000000	14.861273
848.000000	14.850805
847.000000	14.964562
846.000000	15.029758
845.000000	15.060348
844.000000	14.966009
843.000000	15.026644
842.000000	15.037686
841.000000	15.143595
840.000000	15.216823
839.000000	15.329995
838.000000	15.209887
837.000000	15.124847
836.000000	15.179938
835.000000	15.209257
834.000000	15.272425
833.000000	15.266589
832.000000	15.242739
831.000000	15.381653
830.000000	15.292659
829.000000	15.397244
828.000000	15.313166
827.000000	15.383565
826.000000	15.410439
825.000000	15.456779
824.000000	15.338151
823.000000	15.329853
822.000000	15.356739
821.000000	15.426379
820.000000	15.471627
819.000000	15.440096
818.000000	15.608314
817.000000	15.564064
816.000000	15.508793
815.000000	15.516830
814.000000	15.556432
813.000000	15.638893
812.000000	15.584863
811.000000	15.588345
810.000000	15.644655
809.000000	15.682381
808.000000	15.690183
807.000000	15.675630
806.000000	15.713937
805.000000	15.684909
804.000000	15.750487
803.000000	15.768413
802.000000	15.706268
801.000000	15.741061
800.000000	15.799633
799.000000	15.789014
798.000000	15.802871
797.000000	15.793631
796.000000	15.885321
795.000000	15.850830
794.000000	15.835216
793.000000	15.885102
792.000000	15.890223
791.000000	15.846961
790.000000	15.882907
789.000000	15.932356
788.000000	15.937309
787.000000	15.922674
786.000000	15.970003
785.000000	15.964304
784.000000	15.957505
783.000000	16.049703
782.000000	16.053547
781.000000	16.080072
780.000000	15.988289
779.000000	16.075297
778.000000	16.027471
777.000000	16.036367
776.000000	16.157457
775.000000	16.160731
774.000000	16.200671
773.000000	16.187173
772.000000	16.097002
771.000000	16.209066
770.000000	16.170036
769.000000	16.200223
768.000000	16.212090
767.000000	16.262638
766.000000	16.283697
765.000000	16.302342
764.000000	16.280435
763.000000	16.304820
762.000000	16.327888
761.000000	16.345379
760.000000	16.403820
759.000000	16.387285
758.000000	16.326572
757.000000	16.464290
756.000000	16.476729
755.000000	16.433762
754.000000	16.473884
753.000000	16.484888
752.000000	16.469750
751.000000	16.469901
750.000000	16.493886
749.000000	16.500116
748.000000	16.525591
747.000000	16.545656
746.000000	16.614107
745.000000	16.635314
744.000000	16.650106
743.000000	16.635659
742.000000	16.701482
741.000000	16.701289
740.000000	16.686068
739.000000	16.761543
738.000000	16.680958
737.000000	16.746961
736.000000	16.795502
735.000000	16.788852
734.000000	16.801420
733.000000	16.830732
732.000000	16.798713
731.000000	16.852371
730.000000	16.914922
729.000000	16.954344
728.000000	16.887797
727.000000	16.952627
726.000000	16.942988
725.000000	16.984157
724.000000	17.002391
723.000000	17.031229
722.000000	17.029230
721.000000	17.066993
720.000000	17.056464
719.000000	17.071434
718.000000	17.048101
717.000000	17.070962
716.000000	17.112364
715.000000	17.177225
714.000000	17.177502
713.000000	17.176315
712.000000	17.218725
711.000000	17.233163
710.000000	17.261042
709.000000	17.283472
708.000000	17.293106
707.000000	17.318768
706.000000	17.307168
705.000000	17.356694
704.000000	17.360091
703.000000	17.388175
702.000000	17.397987
701.000000	17.404438
700.000000	17.446568
699.000000	17.465700
698.000000	17.473182
697.000000	17.489524
696.000000	17.533758
695.000000	17.542076
694.000000	17.551490
693.000000	17.605728
692.000000	17.617164
691.000000	17.629500
690.000000	17.643023
689.000000	17.637093
688.000000	17.672948
687.000000	17.705207
686.000000	17.710507
685.000000	17.727888
684.000000	17.776858
683.000000	17.781934
682.000000	17.783572
681.000000	17.817756
680.000000	17.849580
679.000000	17.880020
678.000000	17.898268
677.000000	17.911337
676.000000	17.938701
675.000000	17.963254
674.000000	18.003419
673.000000	17.998694
672.000000	17.982580
671.000000	18.021295
670.000000	18.059719
669.000000	18.091768
668.000000	18.106104
667.000000	18.126961
666.000000	18.155366
665.000000	18.184694
664.000000	18.217803
663.000000	18.216880
662.000000	18.209625
661.000000	18.242821
660.000000	18.270860
659.000000	18.299069
658.000000	18.326182
657.000000	18.342055
656.000000	18.365426
655.000000	18.402762
654.000000	18.408186
653.000000	18.436862
652.000000	18.461161
651.000000	18.467836
650.000000	18.490004
649.000000	18.516717
648.000000	18.542915
647.000000	18.545904
646.000000	18.556241
645.000000	18.587244
644.000000	18.611955
643.000000	18.635970
642.000000	18.669900
641.000000	18.705572
640.000000	18.733935
639.000000	18.754608
638.000000	18.754781
637.000000	18.775867
636.000000	18.816593
635.000000	18.839007
634.000000	18.867962
633.000000	18.904622
632.000000	18.911980
631.000000	18.924526
630.000000	18.952653
629.000000	18.964133
628.000000	18.994331
627.000000	19.038161
626.000000	19.086004
625.000000	19.096466
624.000000	19.110498
623.000000	19.133481
622.000000	19.137888
621.000000	19.153185
620.000000	19.190620
619.000000	19.220072
618.000000	19.255819
617.000000	19.275072
616.000000	19.292833
615.000000	19.309854
614.000000	19.328894
613.000000	19.358781
612.000000	19.388446
611.000000	19.407161
610.000000	19.431978
609.000000	19.461486
608.000000	19.475966
607.000000	19.507697
606.000000	19.527291
605.000000	19.529225
604.000000	19.539300
603.000000	19.569242
602.000000	19.583396
601.000000	19.606587
600.000000	19.612096
599.000000	19.615438
598.000000	19.626416
597.000000	19.620361
596.000000	19.591830
595.000000	19.589980
594.000000	19.583035
593.000000	19.580690
592.000000	19.553207
591.000000	19.516817
590.000000	19.488706
589.000000	19.440705
588.000000	19.422628
587.000000	19.348397
586.000000	19.299186
585.000000	19.254312
584.000000	19.200476
583.000000	19.118904
582.000000	19.057854
581.000000	19.010783
580.000000	18.997786
579.000000	18.939914
578.000000	18.892220
577.000000	18.872047
576.000000	18.833889
575.000000	18.833759
574.000000	18.823440
573.000000	18.827472
572.000000	18.845688
571.000000	18.847381
570.000000	18.862359
569.000000	18.881783
568.000000	18.887914
567.000000	18.905797
566.000000	18.933286
565.000000	18.960378
564.000000	18.951562
563.000000	18.992888
562.000000	19.003561
561.000000	19.047720
560.000000	19.063604
559.000000	19.079544
558.000000	19.121766
557.000000	19.167700
556.000000	19.198708
555.000000	19.239953
554.000000	19.286215
553.000000	19.317415
552.000000	19.343542
551.000000	19.369883
550.000000	19.410468
549.000000	19.463996
548.000000	19.488751
547.000000	19.496156
546.000000	19.549155
545.000000	19.564962
544.000000	19.626054
543.000000	19.668217
542.000000	19.700353
541.000000	19.744857
540.000000	19.748813
539.000000	19.783676
538.000000	19.832936
537.000000	19.864196
536.000000	19.869091
535.000000	19.896469
534.000000	19.921040
533.000000	19.945825
532.000000	19.990838
531.000000	19.997468
530.000000	20.032170
529.000000	20.083574
528.000000	20.095370
527.000000	20.118194
526.000000	20.145544
525.000000	20.181805
524.000000	20.208589
523.000000	20.245523
522.000000	20.267212
521.000000	20.302382
520.000000	20.350543
519.000000	20.379288
518.000000	20.428572
517.000000	20.474957
516.000000	20.508694
515.000000	20.554693
514.000000	20.609289
513.000000	20.686737
512.000000	20.712475
511.000000	20.735762
510.000000	20.789354
509.000000	20.823225
508.000000	20.851870
507.000000	20.947780
506.000000	20.897580
505.000000	20.959842
504.000000	20.969014
503.000000	20.961869
502.000000	20.925363
501.000000	20.888440
500.000000	20.831618
499.000000	20.793136
498.000000	20.731943
497.000000	20.614936
496.000000	20.562599
495.000000	20.480568
494.000000	20.358792
493.000000	20.256994
492.000000	20.167358
491.000000	20.055246
490.000000	19.995994
489.000000	19.927646
488.000000	19.849337
487.000000	19.780670
486.000000	19.746903
485.000000	19.676824
484.000000	19.644410
483.000000	19.593995
482.000000	19.601396
481.000000	19.613947
480.000000	19.602208
479.000000	19.626280
478.000000	19.642737
477.000000	19.680947
476.000000	19.710834
475.000000	19.739311
474.000000	19.774704
473.000000	19.823211
472.000000	19.848377
471.000000	19.939121
470.000000	19.988767
469.000000	20.013129
468.000000	20.090466
467.000000	20.140767
466.000000	20.193658
465.000000	20.246176
464.000000	20.318330
463.000000	20.356401
462.000000	20.393464
461.000000	20.466755
460.000000	20.517054
459.000000	20.544615
458.000000	20.607723
457.000000	20.640918
456.000000	20.656370
455.000000	20.717483
454.000000	20.765051
453.000000	20.780357
452.000000	20.813878
451.000000	20.854366
450.000000	20.902537
449.000000	20.947153
448.000000	20.960469
447.000000	21.006805
446.000000	21.074001
445.000000	21.115774
444.000000	21.133674
443.000000	21.168935
442.000000	21.217587
441.000000	21.280655
440.000000	21.322838
439.000000	21.355758
438.000000	21.427179
437.000000	21.491365
436.000000	21.543189
435.000000	21.595189
434.000000	21.656187
433.000000	21.702912
432.000000	21.778000
431.000000	21.861603
430.000000	21.910687
429.000000	21.954978
428.000000	22.006552
427.000000	22.089557
426.000000	22.140325
425.000000	22.175325
424.000000	22.238065
423.000000	22.310536
422.000000	22.352289
421.000000	22.392264
420.000000	22.453704
419.000000	22.529368
418.000000	22.567632
417.000000	22.647747
416.000000	22.728459
415.000000	22.769369
414.000000	22.795809
413.000000	22.856883
412.000000	22.903824
411.000000	22.905195
410.000000	22.896811
409.000000	22.920284
408.000000	22.894281
407.000000	22.834841
406.000000	22.766381
405.000000	22.666841
404.000000	22.488319
403.000000	22.239550
402.000000	22.001891
401.000000	21.734067
400.000000	21.408636
399.000000	21.008208
398.000000	20.563167
397.000000	20.119491
396.000000	19.589755
395.000000	18.966622
394.000000	18.360901
393.000000	17.750762
392.000000	17.106809
391.000000	16.453299
390.000000	15.813136
389.000000	15.190847
388.000000	14.613424
387.000000	14.043747
386.000000	13.540478
385.000000	13.067304
384.000000	12.590240
383.000000	12.169563
382.000000	11.755876
381.000000	11.401736
380.000000	11.070800
379.000000	10.742095
378.000000	10.373899
377.000000	10.036008
376.000000	9.774645
375.000000	9.549178
374.000000	9.326206
373.000000	9.141490
372.000000	8.989530
371.000000	8.797110
370.000000	8.598565
369.000000	8.402219
368.000000	8.256367
367.000000	8.122112
366.000000	7.981895
365.000000	7.840577
364.000000	7.708165
363.000000	7.563747
362.000000	7.449429
361.000000	7.310128
360.000000	7.210195
359.000000	7.131059
358.000000	7.040249
357.000000	6.928433
356.000000	6.840691
355.000000	6.780801
354.000000	6.696116
353.000000	6.620900
352.000000	6.538152
351.000000	6.482656
350.000000	6.440254
349.000000	6.388796
348.000000	6.342055
347.000000	6.291207
346.000000	6.293569
345.000000	6.281263
344.000000	6.226686
343.000000	6.207161
342.000000	6.184662
341.000000	6.180321
340.000000	6.183011
339.000000	6.175242
338.000000	6.150140
337.000000	6.139528
336.000000	6.188295
335.000000	6.207218
334.000000	6.224981
333.000000	6.266370
332.000000	6.239388
331.000000	6.274180
330.000000	6.322823
329.000000	6.309588
328.000000	6.351422
327.000000	6.338259
326.000000	6.335093
325.000000	6.454342
324.000000	6.480254
323.000000	6.480776
322.000000	6.497870
321.000000	6.484537
320.000000	6.539642
319.000000	6.470219
318.000000	6.435096
317.000000	6.485314
316.000000	6.506973
315.000000	6.542188
314.000000	6.530418
313.000000	6.527457
312.000000	6.605140
311.000000	6.572884
310.000000	6.593561
309.000000	6.640152
308.000000	6.613875
307.000000	6.666548
306.000000	6.656011
305.000000	6.652563
304.000000	6.624788
303.000000	6.644755
302.000000	6.605961
301.000000	6.592786
300.000000	6.623949
299.000000	6.580320
298.000000	6.627092
297.000000	6.650358
296.000000	6.640993
295.000000	6.630893
294.000000	6.595899
293.000000	6.575534
292.000000	6.567937
291.000000	6.594107
290.000000	6.606691
289.000000	6.497765
288.000000	6.553209
287.000000	6.590768
286.000000	6.603741
285.000000	6.619467
284.000000	6.539040
283.000000	6.539296
282.000000	6.568436
281.000000	6.562767
280.000000	6.615566
279.000000	6.600427
278.000000	6.617333
277.000000	6.619482
276.000000	6.614408
275.000000	6.644082
274.000000	6.660763
273.000000	6.657712
272.000000	6.672491
271.000000	6.664154
270.000000	6.738109
269.000000	6.706903
268.000000	6.708555
267.000000	6.690322
266.000000	6.735751
265.000000	6.753999
264.000000	6.743308
263.000000	6.746647
262.000000	6.807176
261.000000	6.790660
260.000000	6.804434
259.000000	6.824314
258.000000	6.820230
257.000000	6.810829
256.000000	6.805421
255.000000	6.840313
254.000000	6.827788
253.000000	6.850275
252.000000	6.880959
251.000000	6.844000
250.000000	6.885033
249.000000	6.936781
248.000000	6.891789
247.000000	6.915061
246.000000	6.912179
245.000000	6.968640
244.000000	6.927922
243.000000	6.956615
242.000000	6.981327
241.000000	6.975992
240.000000	7.016168
239.000000	6.968431
238.000000	7.054821
237.000000	7.015070
236.000000	7.009693
235.000000	7.047450
234.000000	7.084268
233.000000	7.118869
232.000000	7.143104
231.000000	7.131075
230.000000	7.199727
229.000000	7.179563
228.000000	7.220695
227.000000	7.242875
226.000000	7.281637
225.000000	7.264705
224.000000	7.300271
223.000000	7.399238
222.000000	7.394997
221.000000	7.403737
220.000000	7.440755
219.000000	7.436747
218.000000	7.489693
217.000000	7.500030
216.000000	7.565210
215.000000	7.582196
214.000000	7.575599
213.000000	7.590843
212.000000	7.686489
211.000000	7.739947
210.000000	7.789203
209.000000	7.853604
208.000000	7.880704
207.000000	7.900944
206.000000	7.920070
205.000000	7.965518
204.000000	8.090922
203.000000	8.227464
202.000000	8.227313
201.000000	8.388243
200.000000	8.439428
199.000000	8.646911
198.000000	8.633880
197.000000	8.719408
196.000000	8.864842
195.000000	9.077286
194.000000	9.536126
193.000000	9.869474
192.000000	10.742887
191.000000	11.648366
190.000000	14.808123
189.000000	23.589297
188.000000	44.957795
187.000000	85.822666
186.000000	93.533245
185.000000	96.350728
184.000000	101.462369
183.000000	100.495358
182.000000	97.501882
181.000000	98.243992
180.000000	97.712247
179.000000	98.646118
178.000000	98.411987
177.000000	97.577795
176.000000	100.567812
175.000000	95.858140
