PE UV       SUBTECH     SPECTRUM    ASCII       PEDS        4.00        
   -1
Sample10.Sample.Raw.ASC
25/05/30
13:02:02.00
25/06/06
09:00:45.00
tom jordan
DDQ R4 (extra scan!)
175.000000
1
Lambda 1050
1050L1807051
PerkinElmer UV WinLab 6.4.0.973 / 2.02.06 Lambda 900 UV/VIS/NIR, Jan 28 2016 16:58:34

0
0
3350
0
0
UV/VIS
1
1
1
RBeamAtt,SBeamAtt,150mm sphere / downward view, WB InGaAs Detector
0
0
0
0
Program
Program
3350
3350
3350
0
1
 
 
 
0
 
860.8
319.2
860.8
Front
100
 
S:100 R:100
0
0
0
0
 
0
 
 
 
0
 
 
0
0
0
0
0
 
 
 
 
0
0


0
0
#HDR
-1
-1
#GR
nm
%T
1.0
0.0
2000.000000
-1.000000
1826
8
104.355898
6.185289
#DATA
2000.000000	10.238492
1999.000000	10.155165
1998.000000	10.104830
1997.000000	10.441719
1996.000000	10.262212
1995.000000	10.360388
1994.000000	10.263134
1993.000000	10.172601
1992.000000	10.244836
1991.000000	10.324999
1990.000000	10.441214
1989.000000	10.396305
1988.000000	10.520418
1987.000000	10.362487
1986.000000	10.349134
1985.000000	10.114490
1984.000000	10.323548
1983.000000	10.306661
1982.000000	10.203050
1981.000000	9.942555
1980.000000	10.154978
1979.000000	10.278885
1978.000000	10.237313
1977.000000	10.121713
1976.000000	10.455745
1975.000000	10.259779
1974.000000	10.270770
1973.000000	10.161060
1972.000000	10.156264
1971.000000	10.161949
1970.000000	10.366544
1969.000000	10.464753
1968.000000	10.366711
1967.000000	10.141449
1966.000000	9.944845
1965.000000	9.879364
1964.000000	10.097038
1963.000000	10.418303
1962.000000	10.323311
1961.000000	10.090693
1960.000000	10.111556
1959.000000	10.306139
1958.000000	10.274413
1957.000000	10.411637
1956.000000	10.283501
1955.000000	10.413627
1954.000000	10.159305
1953.000000	10.299307
1952.000000	10.382693
1951.000000	10.437416
1950.000000	10.326806
1949.000000	10.521944
1948.000000	10.252128
1947.000000	10.304075
1946.000000	10.328589
1945.000000	10.252033
1944.000000	10.189034
1943.000000	10.462778
1942.000000	10.534017
1941.000000	10.510515
1940.000000	10.422622
1939.000000	10.327566
1938.000000	10.226782
1937.000000	10.441695
1936.000000	10.534332
1935.000000	10.702174
1934.000000	10.013848
1933.000000	9.768683
1932.000000	9.959602
1931.000000	10.068853
1930.000000	10.480524
1929.000000	10.749543
1928.000000	10.609820
1927.000000	10.342559
1926.000000	10.339082
1925.000000	10.707005
1924.000000	10.642165
1923.000000	10.576720
1922.000000	10.629186
1921.000000	10.649397
1920.000000	10.518626
1919.000000	10.554192
1918.000000	10.367523
1917.000000	10.162019
1916.000000	10.165436
1915.000000	10.517051
1914.000000	10.506498
1913.000000	10.418663
1912.000000	10.568735
1911.000000	10.520636
1910.000000	10.296770
1909.000000	10.492984
1908.000000	10.888198
1907.000000	10.833830
1906.000000	10.714404
1905.000000	10.708336
1904.000000	10.762372
1903.000000	10.920965
1902.000000	10.875820
1901.000000	10.680855
1900.000000	10.657344
1899.000000	10.709002
1898.000000	10.761034
1897.000000	10.624023
1896.000000	10.609820
1895.000000	10.630630
1894.000000	10.729142
1893.000000	10.450089
1892.000000	10.155469
1891.000000	10.194666
1890.000000	10.547244
1889.000000	10.972157
1888.000000	10.979991
1887.000000	10.664414
1886.000000	10.541199
1885.000000	10.666452
1884.000000	10.535884
1883.000000	10.366640
1882.000000	10.413267
1881.000000	10.496947
1880.000000	10.550985
1879.000000	10.443065
1878.000000	10.313617
1877.000000	10.292361
1876.000000	10.445999
1875.000000	10.524804
1874.000000	10.518335
1873.000000	10.700178
1872.000000	10.585174
1871.000000	10.361867
1870.000000	10.426943
1869.000000	10.616858
1868.000000	10.599979
1867.000000	10.635453
1866.000000	10.734035
1865.000000	10.505966
1864.000000	10.366831
1863.000000	10.372561
1862.000000	10.300042
1861.000000	10.443041
1860.000000	10.546734
1859.000000	10.535618
1858.000000	10.465669
1857.000000	10.354664
1856.000000	10.399489
1855.000000	10.339440
1854.000000	10.431241
1853.000000	10.522913
1852.000000	10.508773
1851.000000	10.383912
1850.000000	10.293830
1849.000000	10.290441
1848.000000	10.449151
1847.000000	10.547147
1846.000000	10.636457
1845.000000	10.436479
1844.000000	10.411085
1843.000000	10.366735
1842.000000	10.391805
1841.000000	10.441911
1840.000000	10.363990
1839.000000	10.404543
1838.000000	10.459237
1837.000000	10.404639
1836.000000	10.387547
1835.000000	10.365637
1834.000000	10.396927
1833.000000	10.264174
1832.000000	10.285372
1831.000000	10.145139
1830.000000	10.423462
1829.000000	10.360244
1828.000000	10.343154
1827.000000	10.367881
1826.000000	10.432875
1825.000000	10.379227
1824.000000	10.237361
1823.000000	10.117938
1822.000000	10.310673
1821.000000	10.207209
1820.000000	10.289351
1819.000000	10.307041
1818.000000	10.336797
1817.000000	10.289896
1816.000000	10.240756
1815.000000	10.174615
1814.000000	10.236724
1813.000000	10.324832
1812.000000	10.490061
1811.000000	10.433451
1810.000000	10.411852
1809.000000	10.239223
1808.000000	10.297291
1807.000000	10.300849
1806.000000	10.362797
1805.000000	10.432539
1804.000000	10.410821
1803.000000	10.380756
1802.000000	10.243562
1801.000000	10.257181
1800.000000	10.295015
1799.000000	10.442248
1798.000000	10.373421
1797.000000	10.523204
1796.000000	10.463019
1795.000000	10.445446
1794.000000	10.456636
1793.000000	10.423894
1792.000000	10.267223
1791.000000	10.420559
1790.000000	10.412428
1789.000000	10.488225
1788.000000	10.310412
1787.000000	10.486559
1786.000000	10.332514
1785.000000	10.322408
1784.000000	10.308702
1783.000000	10.475120
1782.000000	10.411013
1781.000000	10.332490
1780.000000	10.452399
1779.000000	10.399944
1778.000000	10.517366
1777.000000	10.497817
1776.000000	10.586320
1775.000000	10.548604
1774.000000	10.480645
1773.000000	10.331729
1772.000000	10.395658
1771.000000	10.501927
1770.000000	10.521605
1769.000000	10.479800
1768.000000	10.561729
1767.000000	10.325522
1766.000000	10.552054
1765.000000	10.283714
1764.000000	10.406843
1763.000000	10.453627
1762.000000	10.529264
1761.000000	10.530112
1760.000000	10.591123
1759.000000	10.412739
1758.000000	10.424494
1757.000000	10.437368
1756.000000	10.611310
1755.000000	10.661566
1754.000000	10.456444
1753.000000	10.428672
1752.000000	10.453073
1751.000000	10.508095
1750.000000	10.564234
1749.000000	10.640891
1748.000000	10.583297
1747.000000	10.528124
1746.000000	10.479897
1745.000000	10.510079
1744.000000	10.552321
1743.000000	10.472805
1742.000000	10.627228
1741.000000	10.609771
1740.000000	10.554775
1739.000000	10.616296
1738.000000	10.450522
1737.000000	10.601712
1736.000000	10.664709
1735.000000	10.712677
1734.000000	10.694365
1733.000000	10.800827
1732.000000	10.664881
1731.000000	10.600028
1730.000000	10.565815
1729.000000	10.664242
1728.000000	10.614365
1727.000000	10.651089
1726.000000	10.682822
1725.000000	10.534162
1724.000000	10.471792
1723.000000	10.572873
1722.000000	10.505894
1721.000000	10.512306
1720.000000	10.706561
1719.000000	10.688924
1718.000000	10.704490
1717.000000	10.623044
1716.000000	10.632588
1715.000000	10.672742
1714.000000	10.729612
1713.000000	10.705846
1712.000000	10.745014
1711.000000	10.594269
1710.000000	10.534623
1709.000000	10.599418
1708.000000	10.689736
1707.000000	10.621357
1706.000000	10.748850
1705.000000	10.788225
1704.000000	10.812024
1703.000000	10.681027
1702.000000	10.570609
1701.000000	10.627620
1700.000000	10.699463
1699.000000	10.683240
1698.000000	10.738584
1697.000000	10.782712
1696.000000	10.657222
1695.000000	10.702100
1694.000000	10.613680
1693.000000	10.645989
1692.000000	10.709766
1691.000000	10.747415
1690.000000	10.697764
1689.000000	10.770975
1688.000000	10.760266
1687.000000	10.723363
1686.000000	10.691263
1685.000000	10.676232
1684.000000	10.719833
1683.000000	10.754049
1682.000000	10.790834
1681.000000	10.738905
1680.000000	10.695079
1679.000000	10.704712
1678.000000	10.773554
1677.000000	10.719561
1676.000000	10.751053
1675.000000	10.796301
1674.000000	10.837697
1673.000000	10.769139
1672.000000	10.751251
1671.000000	10.713959
1670.000000	10.731341
1669.000000	10.776482
1668.000000	10.736433
1667.000000	10.781595
1666.000000	10.805653
1665.000000	10.818100
1664.000000	10.791902
1663.000000	10.749493
1662.000000	10.768544
1661.000000	10.793368
1660.000000	10.764156
1659.000000	10.756228
1658.000000	10.771719
1657.000000	10.779063
1656.000000	10.781669
1655.000000	10.885089
1654.000000	10.863631
1653.000000	10.821763
1652.000000	10.865507
1651.000000	10.911137
1650.000000	10.822809
1649.000000	10.775390
1648.000000	10.879176
1647.000000	10.950173
1646.000000	10.912519
1645.000000	10.868435
1644.000000	10.851880
1643.000000	10.847384
1642.000000	10.846185
1641.000000	10.872790
1640.000000	10.896449
1639.000000	10.863656
1638.000000	10.829640
1637.000000	10.874042
1636.000000	10.861830
1635.000000	10.825725
1634.000000	10.892009
1633.000000	10.950451
1632.000000	10.946619
1631.000000	10.913222
1630.000000	10.874217
1629.000000	10.909655
1628.000000	10.885465
1627.000000	10.951611
1626.000000	10.993045
1625.000000	10.984214
1624.000000	10.966600
1623.000000	10.940370
1622.000000	10.919959
1621.000000	10.876746
1620.000000	10.826174
1619.000000	10.895847
1618.000000	11.002820
1617.000000	10.999122
1616.000000	10.930147
1615.000000	10.873741
1614.000000	10.948182
1613.000000	10.956857
1612.000000	11.026610
1611.000000	10.981053
1610.000000	10.973875
1609.000000	10.915208
1608.000000	10.920034
1607.000000	11.006241
1606.000000	10.972788
1605.000000	10.966221
1604.000000	11.010727
1603.000000	10.981989
1602.000000	10.937121
1601.000000	10.973294
1600.000000	11.016636
1599.000000	10.991982
1598.000000	10.974254
1597.000000	11.014226
1596.000000	10.967661
1595.000000	11.005202
1594.000000	10.985909
1593.000000	10.975416
1592.000000	11.026305
1591.000000	11.099745
1590.000000	11.041040
1589.000000	11.088377
1588.000000	11.000185
1587.000000	10.979587
1586.000000	11.063766
1585.000000	11.049942
1584.000000	11.112608
1583.000000	11.063894
1582.000000	11.070239
1581.000000	11.059615
1580.000000	11.092591
1579.000000	11.026737
1578.000000	11.079623
1577.000000	11.099566
1576.000000	11.106673
1575.000000	11.073553
1574.000000	10.982621
1573.000000	11.061398
1572.000000	11.060379
1571.000000	11.114988
1570.000000	11.073553
1569.000000	11.105267
1568.000000	11.109717
1567.000000	11.198530
1566.000000	11.080823
1565.000000	11.123565
1564.000000	11.165238
1563.000000	11.193425
1562.000000	11.161486
1561.000000	11.097138
1560.000000	11.154754
1559.000000	11.112250
1558.000000	11.182914
1557.000000	11.156629
1556.000000	11.191698
1555.000000	11.098646
1554.000000	11.161691
1553.000000	11.172671
1552.000000	11.205365
1551.000000	11.180185
1550.000000	11.101355
1549.000000	11.186365
1548.000000	11.183919
1547.000000	11.226955
1546.000000	11.182940
1545.000000	11.230601
1544.000000	11.163902
1543.000000	11.144511
1542.000000	11.272987
1541.000000	11.275090
1540.000000	11.286441
1539.000000	11.129099
1538.000000	11.209132
1537.000000	11.221761
1536.000000	11.314881
1535.000000	11.286674
1534.000000	11.240587
1533.000000	11.243435
1532.000000	11.191415
1531.000000	11.238387
1530.000000	11.153727
1529.000000	11.327655
1528.000000	11.275868
1527.000000	11.391738
1526.000000	11.284803
1525.000000	11.300769
1524.000000	11.245739
1523.000000	11.291951
1522.000000	11.312875
1521.000000	11.362660
1520.000000	11.388591
1519.000000	11.362215
1518.000000	11.328828
1517.000000	11.285765
1516.000000	11.332794
1515.000000	11.380884
1514.000000	11.455947
1513.000000	11.405807
1512.000000	11.418314
1511.000000	11.313527
1510.000000	11.349272
1509.000000	11.387306
1508.000000	11.408906
1507.000000	11.374963
1506.000000	11.376561
1505.000000	11.401999
1504.000000	11.358004
1503.000000	11.391817
1502.000000	11.371768
1501.000000	11.368312
1500.000000	11.410692
1499.000000	11.411008
1498.000000	11.405281
1497.000000	11.356774
1496.000000	11.389142
1495.000000	11.451516
1494.000000	11.452202
1493.000000	11.396408
1492.000000	11.454206
1491.000000	11.370511
1490.000000	11.407593
1489.000000	11.417552
1488.000000	11.400975
1487.000000	11.475827
1486.000000	11.475299
1485.000000	11.541865
1484.000000	11.473766
1483.000000	11.476197
1482.000000	11.451042
1481.000000	11.521579
1480.000000	11.518343
1479.000000	11.510707
1478.000000	11.499898
1477.000000	11.410955
1476.000000	11.420681
1475.000000	11.460168
1474.000000	11.597543
1473.000000	11.548564
1472.000000	11.593245
1471.000000	11.522746
1470.000000	11.537880
1469.000000	11.541972
1468.000000	11.562986
1467.000000	11.585479
1466.000000	11.600428
1465.000000	11.610368
1464.000000	11.577052
1463.000000	11.594766
1462.000000	11.577826
1461.000000	11.573214
1460.000000	11.612400
1459.000000	11.665275
1458.000000	11.646247
1457.000000	11.629660
1456.000000	11.593565
1455.000000	11.569911
1454.000000	11.580678
1453.000000	11.620184
1452.000000	11.673901
1451.000000	11.649868
1450.000000	11.631614
1449.000000	11.628642
1448.000000	11.624840
1447.000000	11.635874
1446.000000	11.652497
1445.000000	11.687429
1444.000000	11.663906
1443.000000	11.677288
1442.000000	11.617883
1441.000000	11.661086
1440.000000	11.675594
1439.000000	11.742241
1438.000000	11.750734
1437.000000	11.704531
1436.000000	11.705339
1435.000000	11.680677
1434.000000	11.700408
1433.000000	11.685008
1432.000000	11.748921
1431.000000	11.805816
1430.000000	11.771288
1429.000000	11.701539
1428.000000	11.704099
1427.000000	11.776006
1426.000000	11.790413
1425.000000	11.820178
1424.000000	11.806767
1423.000000	11.778256
1422.000000	11.710650
1421.000000	11.716557
1420.000000	11.765733
1419.000000	11.796006
1418.000000	11.801277
1417.000000	11.806523
1416.000000	11.832105
1415.000000	11.823716
1414.000000	11.833249
1413.000000	11.816504
1412.000000	11.840771
1411.000000	11.865526
1410.000000	11.879277
1409.000000	11.867849
1408.000000	11.875092
1407.000000	11.865827
1406.000000	11.876596
1405.000000	11.928587
1404.000000	11.942301
1403.000000	11.916124
1402.000000	11.840063
1401.000000	11.844916
1400.000000	11.838700
1399.000000	11.853456
1398.000000	11.862385
1397.000000	11.914093
1396.000000	11.921530
1395.000000	11.915520
1394.000000	11.899343
1393.000000	11.915986
1392.000000	11.957902
1391.000000	11.946371
1390.000000	11.929905
1389.000000	11.912694
1388.000000	11.911488
1387.000000	11.894440
1386.000000	11.926307
1385.000000	11.904496
1384.000000	11.964292
1383.000000	11.987372
1382.000000	11.961317
1381.000000	11.942988
1380.000000	11.967460
1379.000000	12.044035
1378.000000	12.063046
1377.000000	11.998032
1376.000000	11.945133
1375.000000	11.942713
1374.000000	11.971980
1373.000000	12.005244
1372.000000	11.987014
1371.000000	12.006212
1370.000000	11.986462
1369.000000	11.972725
1368.000000	12.042232
1367.000000	12.043147
1366.000000	12.066324
1365.000000	12.077693
1364.000000	12.051997
1363.000000	12.060325
1362.000000	12.085399
1361.000000	12.101940
1360.000000	12.113789
1359.000000	12.097928
1358.000000	12.104588
1357.000000	12.152930
1356.000000	12.131318
1355.000000	12.128972
1354.000000	12.129698
1353.000000	12.128581
1352.000000	12.150943
1351.000000	12.136822
1350.000000	12.104699
1349.000000	12.131849
1348.000000	12.164101
1347.000000	12.112283
1346.000000	12.130480
1345.000000	12.112841
1344.000000	12.150468
1343.000000	12.157940
1342.000000	12.157436
1341.000000	12.192479
1340.000000	12.204697
1339.000000	12.184536
1338.000000	12.150300
1337.000000	12.152790
1336.000000	12.177973
1335.000000	12.201157
1334.000000	12.203151
1333.000000	12.201859
1332.000000	12.158136
1331.000000	12.161664
1330.000000	12.173852
1329.000000	12.215127
1328.000000	12.277841
1327.000000	12.281347
1326.000000	12.263798
1325.000000	12.234550
1324.000000	12.224722
1323.000000	12.209194
1322.000000	12.257249
1321.000000	12.250082
1320.000000	12.246557
1319.000000	12.265973
1318.000000	12.259958
1317.000000	12.288447
1316.000000	12.279396
1315.000000	12.286551
1314.000000	12.276173
1313.000000	12.263262
1312.000000	12.263883
1311.000000	12.317030
1310.000000	12.341871
1309.000000	12.311274
1308.000000	12.289098
1307.000000	12.323101
1306.000000	12.319554
1305.000000	12.302773
1304.000000	12.373797
1303.000000	12.361922
1302.000000	12.355320
1301.000000	12.333263
1300.000000	12.308128
1299.000000	12.375934
1298.000000	12.403664
1297.000000	12.428022
1296.000000	12.380381
1295.000000	12.407949
1294.000000	12.425818
1293.000000	12.459425
1292.000000	12.431914
1291.000000	12.466169
1290.000000	12.433775
1289.000000	12.447439
1288.000000	12.429252
1287.000000	12.461519
1286.000000	12.473289
1285.000000	12.492691
1284.000000	12.463385
1283.000000	12.463299
1282.000000	12.500518
1281.000000	12.558651
1280.000000	12.558362
1279.000000	12.603698
1278.000000	12.536058
1277.000000	12.539956
1276.000000	12.500777
1275.000000	12.496805
1274.000000	12.553505
1273.000000	12.591254
1272.000000	12.579373
1271.000000	12.575608
1270.000000	12.557870
1269.000000	12.599955
1268.000000	12.636506
1267.000000	12.617346
1266.000000	12.632782
1265.000000	12.635895
1264.000000	12.620397
1263.000000	12.603379
1262.000000	12.659542
1261.000000	12.700301
1260.000000	12.691034
1259.000000	12.615661
1258.000000	12.665898
1257.000000	12.648936
1256.000000	12.683555
1255.000000	12.683876
1254.000000	12.649606
1253.000000	12.699511
1252.000000	12.674943
1251.000000	12.688784
1250.000000	12.721461
1249.000000	12.740310
1248.000000	12.769885
1247.000000	12.733008
1246.000000	12.774150
1245.000000	12.740545
1244.000000	12.783565
1243.000000	12.760862
1242.000000	12.812917
1241.000000	12.804334
1240.000000	12.788129
1239.000000	12.776062
1238.000000	12.789807
1237.000000	12.801121
1236.000000	12.833585
1235.000000	12.809583
1234.000000	12.857603
1233.000000	12.843962
1232.000000	12.840679
1231.000000	12.863525
1230.000000	12.894307
1229.000000	12.877306
1228.000000	12.836068
1227.000000	12.870784
1226.000000	12.903158
1225.000000	12.881873
1224.000000	12.922960
1223.000000	12.963462
1222.000000	12.917129
1221.000000	12.921443
1220.000000	12.934749
1219.000000	12.926621
1218.000000	12.948725
1217.000000	12.928913
1216.000000	12.939277
1215.000000	12.948456
1214.000000	12.957822
1213.000000	12.959910
1212.000000	12.946936
1211.000000	12.993166
1210.000000	13.016523
1209.000000	13.053110
1208.000000	13.036470
1207.000000	13.052990
1206.000000	13.057499
1205.000000	13.049894
1204.000000	13.021799
1203.000000	13.070705
1202.000000	13.067033
1201.000000	13.043646
1200.000000	13.067003
1199.000000	13.048572
1198.000000	13.088353
1197.000000	13.084707
1196.000000	13.096613
1195.000000	13.092603
1194.000000	13.121062
1193.000000	13.134756
1192.000000	13.107715
1191.000000	13.147162
1190.000000	13.186423
1189.000000	13.146072
1188.000000	13.131792
1187.000000	13.155368
1186.000000	13.178683
1185.000000	13.197267
1184.000000	13.176468
1183.000000	13.149160
1182.000000	13.180109
1181.000000	13.187759
1180.000000	13.204592
1179.000000	13.240824
1178.000000	13.226685
1177.000000	13.220230
1176.000000	13.196690
1175.000000	13.230188
1174.000000	13.272386
1173.000000	13.264778
1172.000000	13.271530
1171.000000	13.282261
1170.000000	13.290551
1169.000000	13.296551
1168.000000	13.307731
1167.000000	13.300133
1166.000000	13.315669
1165.000000	13.341480
1164.000000	13.319809
1163.000000	13.296949
1162.000000	13.301910
1161.000000	13.318460
1160.000000	13.343876
1159.000000	13.339637
1158.000000	13.347748
1157.000000	13.338193
1156.000000	13.350238
1155.000000	13.408401
1154.000000	13.397322
1153.000000	13.383786
1152.000000	13.398803
1151.000000	13.416956
1150.000000	13.409081
1149.000000	13.436774
1148.000000	13.480096
1147.000000	13.456156
1146.000000	13.433989
1145.000000	13.468214
1144.000000	13.492766
1143.000000	13.483791
1142.000000	13.478234
1141.000000	13.488231
1140.000000	13.480345
1139.000000	13.449186
1138.000000	13.463935
1137.000000	13.509056
1136.000000	13.529508
1135.000000	13.521037
1134.000000	13.540416
1133.000000	13.573817
1132.000000	13.602696
1131.000000	13.620059
1130.000000	13.610184
1129.000000	13.613600
1128.000000	13.583322
1127.000000	13.603072
1126.000000	13.585324
1125.000000	13.586607
1124.000000	13.639140
1123.000000	13.655890
1122.000000	13.624576
1121.000000	13.595682
1120.000000	13.605453
1119.000000	13.598500
1118.000000	13.676281
1117.000000	13.673887
1116.000000	13.663218
1115.000000	13.688883
1114.000000	13.726696
1113.000000	13.746369
1112.000000	13.746591
1111.000000	13.739850
1110.000000	13.735865
1109.000000	13.729414
1108.000000	13.708597
1107.000000	13.762204
1106.000000	13.797392
1105.000000	13.762838
1104.000000	13.762680
1103.000000	13.785706
1102.000000	13.788976
1101.000000	13.824423
1100.000000	13.846627
1099.000000	13.805019
1098.000000	13.786817
1097.000000	13.736782
1096.000000	13.838722
1095.000000	13.878483
1094.000000	13.865004
1093.000000	13.853356
1092.000000	13.899238
1091.000000	13.898982
1090.000000	13.897094
1089.000000	13.902887
1088.000000	13.942094
1087.000000	13.895814
1086.000000	13.910412
1085.000000	13.944373
1084.000000	13.937151
1083.000000	14.010060
1082.000000	13.973719
1081.000000	13.980992
1080.000000	13.913007
1079.000000	13.983826
1078.000000	13.965034
1077.000000	13.934391
1076.000000	14.037184
1075.000000	14.024649
1074.000000	14.014545
1073.000000	14.004287
1072.000000	14.017385
1071.000000	14.010931
1070.000000	14.115654
1069.000000	14.081243
1068.000000	14.069155
1067.000000	14.051510
1066.000000	14.070904
1065.000000	14.125115
1064.000000	14.097724
1063.000000	14.132695
1062.000000	14.112501
1061.000000	14.135917
1060.000000	14.095874
1059.000000	14.104315
1058.000000	14.115979
1057.000000	14.188517
1056.000000	14.105777
1055.000000	14.178295
1054.000000	14.149562
1053.000000	14.214219
1052.000000	14.157579
1051.000000	14.226301
1050.000000	14.203684
1049.000000	14.202932
1048.000000	14.230462
1047.000000	14.219719
1046.000000	14.332073
1045.000000	14.248069
1044.000000	14.288545
1043.000000	14.241312
1042.000000	14.160905
1041.000000	14.225220
1040.000000	14.289367
1039.000000	14.264745
1038.000000	14.267734
1037.000000	14.249283
1036.000000	14.338509
1035.000000	14.337849
1034.000000	14.412091
1033.000000	14.356150
1032.000000	14.289532
1031.000000	14.383415
1030.000000	14.320263
1029.000000	14.380765
1028.000000	14.427929
1027.000000	14.378878
1026.000000	14.354167
1025.000000	14.329697
1024.000000	14.424242
1023.000000	14.472615
1022.000000	14.558915
1021.000000	14.415709
1020.000000	14.409238
1019.000000	14.443751
1018.000000	14.437799
1017.000000	14.432282
1016.000000	14.599299
1015.000000	14.508850
1014.000000	14.484616
1013.000000	14.520247
1012.000000	14.522487
1011.000000	14.604645
1010.000000	14.705405
1009.000000	14.581090
1008.000000	14.603468
1007.000000	14.633864
1006.000000	14.561764
1005.000000	14.640469
1004.000000	14.613054
1003.000000	14.575652
1002.000000	14.584179
1001.000000	14.677936
1000.000000	14.685374
999.000000	14.681925
998.000000	14.627833
997.000000	14.655175
996.000000	14.645426
995.000000	14.668307
994.000000	14.718380
993.000000	14.703543
992.000000	14.737608
991.000000	14.633291
990.000000	14.745279
989.000000	14.698872
988.000000	14.692206
987.000000	14.708419
986.000000	14.845813
985.000000	14.865071
984.000000	14.848548
983.000000	14.721735
982.000000	14.815455
981.000000	14.888708
980.000000	14.888879
979.000000	14.838944
978.000000	14.866509
977.000000	14.833034
976.000000	14.901912
975.000000	15.076829
974.000000	14.994915
973.000000	14.970938
972.000000	14.859733
971.000000	14.870172
970.000000	14.806929
969.000000	15.012015
968.000000	14.978937
967.000000	14.924370
966.000000	14.837782
965.000000	14.906957
964.000000	14.964389
963.000000	15.093084
962.000000	15.023461
961.000000	15.048804
960.000000	15.022078
959.000000	15.081585
958.000000	15.066244
957.000000	15.108453
956.000000	15.097638
955.000000	14.991704
954.000000	14.991980
953.000000	14.975799
952.000000	15.049151
951.000000	15.098020
950.000000	15.113011
949.000000	15.075822
948.000000	15.106957
947.000000	15.128365
946.000000	15.348538
945.000000	15.280234
944.000000	15.289138
943.000000	15.276786
942.000000	15.248074
941.000000	15.209187
940.000000	15.252569
939.000000	15.268276
938.000000	15.228005
937.000000	15.204460
936.000000	15.161250
935.000000	15.234458
934.000000	15.362716
933.000000	15.442372
932.000000	15.242177
931.000000	15.218926
930.000000	15.266061
929.000000	15.339281
928.000000	15.427054
927.000000	15.366431
926.000000	15.268381
925.000000	15.363282
924.000000	15.407636
923.000000	15.578692
922.000000	15.706774
921.000000	15.636660
920.000000	15.472661
919.000000	15.370252
918.000000	15.432881
917.000000	15.596746
916.000000	15.790650
915.000000	15.760791
914.000000	15.453327
913.000000	15.249198
912.000000	15.343167
911.000000	15.689099
910.000000	15.967834
909.000000	15.902156
908.000000	15.505579
907.000000	15.171447
906.000000	15.531164
905.000000	15.615755
904.000000	15.810150
903.000000	16.005417
902.000000	15.913327
901.000000	15.761444
900.000000	15.766671
899.000000	15.928394
898.000000	16.116733
897.000000	16.011020
896.000000	15.922454
895.000000	15.846888
894.000000	16.258482
893.000000	16.052327
892.000000	15.728742
891.000000	15.804108
890.000000	15.899776
889.000000	15.830696
888.000000	15.868249
887.000000	15.948469
886.000000	15.923517
885.000000	15.956477
884.000000	15.847691
883.000000	16.028763
882.000000	16.423473
881.000000	16.175920
880.000000	16.043311
879.000000	15.642170
878.000000	15.774769
877.000000	16.277249
876.000000	16.582423
875.000000	15.951591
874.000000	15.848166
873.000000	15.848166
872.000000	15.913437
871.000000	15.515079
870.000000	16.217167
869.000000	16.666062
868.000000	16.244038
867.000000	15.865764
866.000000	15.904975
865.000000	16.267582
864.000000	16.437168
863.000000	16.797707
862.000000	16.381362
861.000000	15.583392
860.000000	14.852823
859.000000	15.013778
858.000000	14.787815
857.000000	14.834025
856.000000	14.960152
855.000000	15.129480
854.000000	15.062949
853.000000	14.993568
852.000000	14.955227
851.000000	14.922102
850.000000	15.027336
849.000000	14.993119
848.000000	14.905378
847.000000	14.989529
846.000000	15.000785
845.000000	15.020383
844.000000	15.191442
843.000000	15.128330
842.000000	15.147222
841.000000	15.141573
840.000000	15.298998
839.000000	15.249409
838.000000	15.323219
837.000000	15.196830
836.000000	15.344403
835.000000	15.367209
834.000000	15.351082
833.000000	15.389943
832.000000	15.377403
831.000000	15.419028
830.000000	15.343237
829.000000	15.365157
828.000000	15.389198
827.000000	15.431282
826.000000	15.522655
825.000000	15.519617
824.000000	15.398450
823.000000	15.424781
822.000000	15.490805
821.000000	15.553638
820.000000	15.487845
819.000000	15.477934
818.000000	15.646240
817.000000	15.632916
816.000000	15.617374
815.000000	15.575357
814.000000	15.611585
813.000000	15.662822
812.000000	15.729901
811.000000	15.751721
810.000000	15.714805
809.000000	15.779964
808.000000	15.789486
807.000000	15.793631
806.000000	15.819910
805.000000	15.717121
804.000000	15.790032
803.000000	15.761408
802.000000	15.783888
801.000000	15.882322
800.000000	15.901314
799.000000	15.938741
798.000000	15.877313
797.000000	15.810988
796.000000	15.911349
795.000000	15.928358
794.000000	15.890479
793.000000	15.956697
792.000000	15.971474
791.000000	15.915563
790.000000	15.957689
789.000000	15.997643
788.000000	16.042424
787.000000	16.078554
786.000000	16.041095
785.000000	16.098744
784.000000	16.052438
783.000000	16.118291
782.000000	16.135150
781.000000	16.174803
780.000000	16.108422
779.000000	16.121075
778.000000	16.157233
777.000000	16.193212
776.000000	16.193510
775.000000	16.208096
774.000000	16.214815
773.000000	16.279235
772.000000	16.311879
771.000000	16.298026
770.000000	16.230354
769.000000	16.289809
768.000000	16.350047
767.000000	16.377062
766.000000	16.375629
765.000000	16.410847
764.000000	16.352532
763.000000	16.391247
762.000000	16.400534
761.000000	16.444285
760.000000	16.459665
759.000000	16.445194
758.000000	16.472746
757.000000	16.582194
756.000000	16.556289
755.000000	16.543256
754.000000	16.616823
753.000000	16.583225
752.000000	16.541276
751.000000	16.563038
750.000000	16.605808
749.000000	16.597474
748.000000	16.631522
747.000000	16.627731
746.000000	16.707982
745.000000	16.711445
744.000000	16.718912
743.000000	16.746112
742.000000	16.783595
741.000000	16.776293
740.000000	16.841858
739.000000	16.844456
738.000000	16.808889
737.000000	16.870152
736.000000	16.850004
735.000000	16.890014
734.000000	16.914143
733.000000	16.897988
732.000000	16.865841
731.000000	16.920609
730.000000	17.005327
729.000000	17.031033
728.000000	16.996441
727.000000	17.006228
726.000000	17.038957
725.000000	17.112758
724.000000	17.094091
723.000000	17.099799
722.000000	17.145297
721.000000	17.147586
720.000000	17.124189
719.000000	17.143757
718.000000	17.151259
717.000000	17.207865
716.000000	17.217219
715.000000	17.232489
714.000000	17.280926
713.000000	17.319925
712.000000	17.334447
711.000000	17.319087
710.000000	17.332851
709.000000	17.363129
708.000000	17.361850
707.000000	17.422160
706.000000	17.419954
705.000000	17.433517
704.000000	17.444881
703.000000	17.464333
702.000000	17.457980
701.000000	17.517535
700.000000	17.520561
699.000000	17.557796
698.000000	17.593409
697.000000	17.595394
696.000000	17.620694
695.000000	17.640911
694.000000	17.664811
693.000000	17.677791
692.000000	17.703576
691.000000	17.717400
690.000000	17.743366
689.000000	17.738586
688.000000	17.770269
687.000000	17.807051
686.000000	17.829904
685.000000	17.845265
684.000000	17.847813
683.000000	17.857514
682.000000	17.896454
681.000000	17.915668
680.000000	17.941634
679.000000	17.954570
678.000000	17.985396
677.000000	18.011380
676.000000	18.046168
675.000000	18.057474
674.000000	18.068246
673.000000	18.089935
672.000000	18.113192
671.000000	18.124415
670.000000	18.131636
669.000000	18.162265
668.000000	18.197972
667.000000	18.214909
666.000000	18.244543
665.000000	18.261649
664.000000	18.308889
663.000000	18.335215
662.000000	18.320993
661.000000	18.353842
660.000000	18.365299
659.000000	18.386159
658.000000	18.424937
657.000000	18.444038
656.000000	18.455593
655.000000	18.480214
654.000000	18.503761
653.000000	18.518764
652.000000	18.549705
651.000000	18.591225
650.000000	18.601287
649.000000	18.620100
648.000000	18.645756
647.000000	18.660359
646.000000	18.662164
645.000000	18.691924
644.000000	18.731131
643.000000	18.751888
642.000000	18.778029
641.000000	18.798318
640.000000	18.833672
639.000000	18.853414
638.000000	18.869613
637.000000	18.906581
636.000000	18.919079
635.000000	18.931019
634.000000	18.960859
633.000000	18.982963
632.000000	19.014942
631.000000	19.045747
630.000000	19.079061
629.000000	19.082444
628.000000	19.089871
627.000000	19.113314
626.000000	19.157331
625.000000	19.179620
624.000000	19.179532
623.000000	19.220558
622.000000	19.245624
621.000000	19.250632
620.000000	19.281908
619.000000	19.321730
618.000000	19.332544
617.000000	19.365557
616.000000	19.399833
615.000000	19.422539
614.000000	19.443749
613.000000	19.459559
612.000000	19.494899
611.000000	19.508326
610.000000	19.522795
609.000000	19.556989
608.000000	19.578391
607.000000	19.595800
606.000000	19.616341
605.000000	19.646853
604.000000	19.660973
603.000000	19.669667
602.000000	19.698039
601.000000	19.703165
600.000000	19.712423
599.000000	19.714238
598.000000	19.727134
597.000000	19.711606
596.000000	19.706477
595.000000	19.699990
594.000000	19.701714
593.000000	19.692869
592.000000	19.659026
591.000000	19.625512
590.000000	19.588943
589.000000	19.530754
588.000000	19.487315
587.000000	19.432157
586.000000	19.400101
585.000000	19.328226
584.000000	19.262205
583.000000	19.208922
582.000000	19.174145
581.000000	19.121986
580.000000	19.062199
579.000000	19.002686
578.000000	19.000542
577.000000	18.978680
576.000000	18.942749
575.000000	18.941309
574.000000	18.908061
573.000000	18.908018
572.000000	18.923872
571.000000	18.946238
570.000000	18.969636
569.000000	18.971820
568.000000	18.966360
567.000000	19.006318
566.000000	19.039345
565.000000	19.065491
564.000000	19.069882
563.000000	19.113710
562.000000	19.102579
561.000000	19.159140
560.000000	19.161169
559.000000	19.190752
558.000000	19.213080
557.000000	19.263890
556.000000	19.315235
555.000000	19.321819
554.000000	19.370195
553.000000	19.399610
552.000000	19.439944
551.000000	19.453959
550.000000	19.496336
549.000000	19.536421
548.000000	19.569873
547.000000	19.600719
546.000000	19.621129
545.000000	19.672837
544.000000	19.702893
543.000000	19.762232
542.000000	19.793017
541.000000	19.820290
540.000000	19.836681
539.000000	19.877786
538.000000	19.913518
537.000000	19.953312
536.000000	19.964848
535.000000	19.991068
534.000000	20.002349
533.000000	20.032539
532.000000	20.065501
531.000000	20.097221
530.000000	20.108237
529.000000	20.165082
528.000000	20.190497
527.000000	20.188637
526.000000	20.230984
525.000000	20.271319
524.000000	20.292848
523.000000	20.325582
522.000000	20.354854
521.000000	20.396376
520.000000	20.443206
519.000000	20.479766
518.000000	20.524000
517.000000	20.553321
516.000000	20.626237
515.000000	20.670882
514.000000	20.696409
513.000000	20.767442
512.000000	20.798356
511.000000	20.867576
510.000000	20.897773
509.000000	20.926327
508.000000	20.977899
507.000000	21.007385
506.000000	21.023160
505.000000	21.053097
504.000000	21.062795
503.000000	21.042484
502.000000	21.032118
501.000000	20.995973
500.000000	20.931242
499.000000	20.895752
498.000000	20.829220
497.000000	20.742113
496.000000	20.671643
495.000000	20.584532
494.000000	20.492267
493.000000	20.368779
492.000000	20.283738
491.000000	20.163597
490.000000	20.106617
489.000000	20.018798
488.000000	19.936733
487.000000	19.885431
486.000000	19.817734
485.000000	19.767694
484.000000	19.739721
483.000000	19.705751
482.000000	19.693323
481.000000	19.687837
480.000000	19.700579
479.000000	19.701305
478.000000	19.751496
477.000000	19.751314
476.000000	19.789098
475.000000	19.823987
474.000000	19.862001
473.000000	19.912510
472.000000	19.938202
471.000000	20.011609
470.000000	20.091437
469.000000	20.126534
468.000000	20.157469
467.000000	20.224789
466.000000	20.292614
465.000000	20.332510
464.000000	20.420436
463.000000	20.454930
462.000000	20.502461
461.000000	20.533406
460.000000	20.614841
459.000000	20.648666
458.000000	20.708231
457.000000	20.762517
456.000000	20.781984
455.000000	20.806594
454.000000	20.838910
453.000000	20.871853
452.000000	20.920882
451.000000	20.982827
450.000000	20.995828
449.000000	21.068131
448.000000	21.062601
447.000000	21.138687
446.000000	21.162112
445.000000	21.246529
444.000000	21.262827
443.000000	21.263316
442.000000	21.298352
441.000000	21.375732
440.000000	21.421851
439.000000	21.473310
438.000000	21.539866
437.000000	21.591658
436.000000	21.635902
435.000000	21.719559
434.000000	21.752742
433.000000	21.788283
432.000000	21.863516
431.000000	21.947042
430.000000	22.013343
429.000000	22.065156
428.000000	22.132374
427.000000	22.166494
426.000000	22.241035
425.000000	22.316239
424.000000	22.343335
423.000000	22.401082
422.000000	22.448121
421.000000	22.494430
420.000000	22.575116
419.000000	22.632056
418.000000	22.690967
417.000000	22.729140
416.000000	22.789668
415.000000	22.868412
414.000000	22.928044
413.000000	22.975607
412.000000	23.013146
411.000000	23.042893
410.000000	23.024701
409.000000	23.033238
408.000000	23.000591
407.000000	22.941721
406.000000	22.890907
405.000000	22.746993
404.000000	22.566645
403.000000	22.382727
402.000000	22.098256
401.000000	21.829561
400.000000	21.481421
399.000000	21.066142
398.000000	20.627329
397.000000	20.145266
396.000000	19.619864
395.000000	19.020328
394.000000	18.424470
393.000000	17.813900
392.000000	17.146994
391.000000	16.477222
390.000000	15.864449
389.000000	15.259700
388.000000	14.643875
387.000000	14.085881
386.000000	13.577475
385.000000	13.077659
384.000000	12.608226
383.000000	12.190626
382.000000	11.813158
381.000000	11.472261
380.000000	11.129970
379.000000	10.766313
378.000000	10.389724
377.000000	10.106063
376.000000	9.877044
375.000000	9.620774
374.000000	9.401475
373.000000	9.204432
372.000000	8.990524
371.000000	8.799865
370.000000	8.627719
369.000000	8.450395
368.000000	8.289207
367.000000	8.152597
366.000000	8.029824
365.000000	7.867088
364.000000	7.715374
363.000000	7.592206
362.000000	7.465020
361.000000	7.371994
360.000000	7.273962
359.000000	7.145802
358.000000	7.036554
357.000000	6.973118
356.000000	6.864897
355.000000	6.760534
354.000000	6.660411
353.000000	6.592058
352.000000	6.557828
351.000000	6.502360
350.000000	6.477181
349.000000	6.435273
348.000000	6.382899
347.000000	6.313177
346.000000	6.296787
345.000000	6.261148
344.000000	6.223203
343.000000	6.185289
342.000000	6.203989
341.000000	6.217990
340.000000	6.223748
339.000000	6.233673
338.000000	6.239805
337.000000	6.232998
336.000000	6.234548
335.000000	6.230401
334.000000	6.255759
333.000000	6.261595
332.000000	6.287326
331.000000	6.311797
330.000000	6.328212
329.000000	6.366167
328.000000	6.343735
327.000000	6.397584
326.000000	6.458282
325.000000	6.498363
324.000000	6.452975
323.000000	6.502150
322.000000	6.525909
321.000000	6.507482
320.000000	6.573036
319.000000	6.504621
318.000000	6.461539
317.000000	6.434162
316.000000	6.505909
315.000000	6.535924
314.000000	6.549875
313.000000	6.621845
312.000000	6.590297
311.000000	6.623873
310.000000	6.613906
309.000000	6.622211
308.000000	6.598193
307.000000	6.606828
306.000000	6.650266
305.000000	6.671830
304.000000	6.649393
303.000000	6.664660
302.000000	6.689875
301.000000	6.691138
300.000000	6.640580
299.000000	6.664660
298.000000	6.665105
297.000000	6.647571
296.000000	6.670233
295.000000	6.647755
294.000000	6.634329
293.000000	6.611135
292.000000	6.605155
291.000000	6.666502
290.000000	6.599545
289.000000	6.554476
288.000000	6.602707
287.000000	6.592483
286.000000	6.623004
285.000000	6.609552
284.000000	6.605581
283.000000	6.619131
282.000000	6.623431
281.000000	6.600503
280.000000	6.632969
279.000000	6.595018
278.000000	6.678501
277.000000	6.627550
276.000000	6.707134
275.000000	6.717753
274.000000	6.671247
273.000000	6.698322
272.000000	6.739195
271.000000	6.747191
270.000000	6.731177
269.000000	6.733177
268.000000	6.761920
267.000000	6.779287
266.000000	6.797997
265.000000	6.759211
264.000000	6.800299
263.000000	6.786205
262.000000	6.800080
261.000000	6.827630
260.000000	6.813261
259.000000	6.824848
258.000000	6.860188
257.000000	6.866920
256.000000	6.839101
255.000000	6.901889
254.000000	6.855893
253.000000	6.855577
252.000000	6.919489
251.000000	6.909936
250.000000	6.899585
249.000000	6.909999
248.000000	6.909824
247.000000	6.963330
246.000000	6.927300
245.000000	6.949187
244.000000	6.984398
243.000000	6.994650
242.000000	7.001482
241.000000	7.030189
240.000000	7.048829
239.000000	7.019255
238.000000	7.071507
237.000000	7.052222
236.000000	7.090649
235.000000	7.106422
234.000000	7.109139
233.000000	7.098981
232.000000	7.130467
231.000000	7.148666
230.000000	7.191144
229.000000	7.188760
228.000000	7.230761
227.000000	7.263936
226.000000	7.292039
225.000000	7.358749
224.000000	7.332465
223.000000	7.381540
222.000000	7.375917
221.000000	7.438237
220.000000	7.420172
219.000000	7.500790
218.000000	7.486848
217.000000	7.521856
216.000000	7.568399
215.000000	7.651085
214.000000	7.665880
213.000000	7.711254
212.000000	7.776461
211.000000	7.765743
210.000000	7.806583
209.000000	7.831465
208.000000	7.849717
207.000000	7.914218
206.000000	8.010064
205.000000	8.072964
204.000000	8.149519
203.000000	8.194020
202.000000	8.280852
201.000000	8.425855
200.000000	8.442421
199.000000	8.553522
198.000000	8.669419
197.000000	8.704864
196.000000	8.775725
195.000000	9.080819
194.000000	9.221806
193.000000	9.591930
192.000000	9.877567
191.000000	10.533362
190.000000	12.079446
189.000000	16.088739
188.000000	28.129693
187.000000	58.648782
186.000000	92.544582
185.000000	101.541599
184.000000	104.355898
183.000000	94.813024
182.000000	99.937389
181.000000	103.193894
180.000000	98.711557
179.000000	101.484099
178.000000	104.170800
177.000000	100.008059
176.000000	94.520280
175.000000	92.356401
