PE UV       SUBTECH     SPECTRUM    ASCII       PEDS        4.00        
   -1
Sample1.Sample.Raw.asc
25/05/30
11:15:53.00
25/05/30
11:15:53.00
tom jordan
CISRO R1
175.000000
1
Lambda 1050
1050L1807051
PerkinElmer UV WinLab 6.4.0.973 / 2.02.06 Lambda 900 UV/VIS/NIR, Jan 28 2016 16:58:34

0
0
3350/servo 860.8/2
0
0
UV/VIS
1
1
1
RBeamAtt,SBeamAtt,150mm sphere / downward view, WB InGaAs Detector
0
0
0
0
Program
Program
3350/servo 860.8/2
3350/0.2 860.8/0.2
3350/0.2 860.8/0.2
0
1.00
 
 
 
0
 
860.8
319.2
860.8
Front
100
 
S:100 R:100
 
0
0
0
 
0
 
 
 
0
 
 
0
0
0
0
0
 
 
 
 
0
0


0
0
#HDR
-1
-1
#GR
nm
A
1.0
0.0
2000.000000
-1.000000
1826
8
1.207717
-0.022379
#DATA
2000.000000	0.907065
1999.000000	0.914132
1998.000000	0.933923
1997.000000	0.944515
1996.000000	0.932350
1995.000000	0.935632
1994.000000	0.920137
1993.000000	0.920645
1992.000000	0.930577
1991.000000	0.939803
1990.000000	0.930021
1989.000000	0.924250
1988.000000	0.935320
1987.000000	0.930143
1986.000000	0.933060
1985.000000	0.931881
1984.000000	0.931046
1983.000000	0.931654
1982.000000	0.928651
1981.000000	0.918523
1980.000000	0.919990
1979.000000	0.922469
1978.000000	0.947318
1977.000000	0.934543
1976.000000	0.922336
1975.000000	0.936426
1974.000000	0.934916
1973.000000	0.924807
1972.000000	0.923307
1971.000000	0.932262
1970.000000	0.934918
1969.000000	0.938004
1968.000000	0.930969
1967.000000	0.937466
1966.000000	0.947504
1965.000000	0.939898
1964.000000	0.941694
1963.000000	0.927421
1962.000000	0.930438
1961.000000	0.931160
1960.000000	0.929467
1959.000000	0.932582
1958.000000	0.931031
1957.000000	0.934371
1956.000000	0.930044
1955.000000	0.934861
1954.000000	0.927364
1953.000000	0.932886
1952.000000	0.933197
1951.000000	0.931474
1950.000000	0.945667
1949.000000	0.925801
1948.000000	0.938733
1947.000000	0.940257
1946.000000	0.934406
1945.000000	0.940770
1944.000000	0.943635
1943.000000	0.936473
1942.000000	0.922191
1941.000000	0.941066
1940.000000	0.924970
1939.000000	0.924385
1938.000000	0.933387
1937.000000	0.945811
1936.000000	0.928271
1935.000000	0.940081
1934.000000	0.938893
1933.000000	0.933106
1932.000000	0.937969
1931.000000	0.932475
1930.000000	0.934783
1929.000000	0.931718
1928.000000	0.931802
1927.000000	0.940749
1926.000000	0.933290
1925.000000	0.934750
1924.000000	0.936115
1923.000000	0.936057
1922.000000	0.937625
1921.000000	0.932812
1920.000000	0.937295
1919.000000	0.928410
1918.000000	0.917689
1917.000000	0.930680
1916.000000	0.943585
1915.000000	0.917911
1914.000000	0.926141
1913.000000	0.935985
1912.000000	0.949447
1911.000000	0.944859
1910.000000	0.925900
1909.000000	0.926301
1908.000000	0.923361
1907.000000	0.921114
1906.000000	0.920662
1905.000000	0.925236
1904.000000	0.921583
1903.000000	0.931630
1902.000000	0.937244
1901.000000	0.926627
1900.000000	0.924724
1899.000000	0.914654
1898.000000	0.914199
1897.000000	0.918468
1896.000000	0.923005
1895.000000	0.929618
1894.000000	0.924736
1893.000000	0.927035
1892.000000	0.925986
1891.000000	0.916353
1890.000000	0.920067
1889.000000	0.929120
1888.000000	0.922595
1887.000000	0.913827
1886.000000	0.919381
1885.000000	0.924782
1884.000000	0.930471
1883.000000	0.940497
1882.000000	0.939768
1881.000000	0.936145
1880.000000	0.932362
1879.000000	0.933490
1878.000000	0.934953
1877.000000	0.926954
1876.000000	0.925305
1875.000000	0.926840
1874.000000	0.921769
1873.000000	0.915159
1872.000000	0.921219
1871.000000	0.921869
1870.000000	0.913048
1869.000000	0.915461
1868.000000	0.925345
1867.000000	0.926242
1866.000000	0.920609
1865.000000	0.921637
1864.000000	0.922073
1863.000000	0.924827
1862.000000	0.917444
1861.000000	0.910129
1860.000000	0.918776
1859.000000	0.932147
1858.000000	0.934908
1857.000000	0.935681
1856.000000	0.933390
1855.000000	0.927385
1854.000000	0.927890
1853.000000	0.928846
1852.000000	0.932368
1851.000000	0.935389
1850.000000	0.923433
1849.000000	0.923834
1848.000000	0.927573
1847.000000	0.923910
1846.000000	0.926206
1845.000000	0.929804
1844.000000	0.923180
1843.000000	0.929536
1842.000000	0.938274
1841.000000	0.926974
1840.000000	0.925216
1839.000000	0.923873
1838.000000	0.925189
1837.000000	0.931186
1836.000000	0.928563
1835.000000	0.931660
1834.000000	0.934438
1833.000000	0.928591
1832.000000	0.929934
1831.000000	0.939547
1830.000000	0.928563
1829.000000	0.931626
1828.000000	0.930261
1827.000000	0.926509
1826.000000	0.923759
1825.000000	0.928995
1824.000000	0.941267
1823.000000	0.944015
1822.000000	0.937396
1821.000000	0.930424
1820.000000	0.942109
1819.000000	0.936436
1818.000000	0.936002
1817.000000	0.932949
1816.000000	0.933111
1815.000000	0.926668
1814.000000	0.925589
1813.000000	0.933172
1812.000000	0.934294
1811.000000	0.936956
1810.000000	0.940015
1809.000000	0.933051
1808.000000	0.935843
1807.000000	0.938817
1806.000000	0.930532
1805.000000	0.930266
1804.000000	0.927835
1803.000000	0.935663
1802.000000	0.935683
1801.000000	0.939845
1800.000000	0.940947
1799.000000	0.938212
1798.000000	0.934032
1797.000000	0.931135
1796.000000	0.933500
1795.000000	0.936379
1794.000000	0.935703
1793.000000	0.937988
1792.000000	0.935554
1791.000000	0.935217
1790.000000	0.931052
1789.000000	0.934410
1788.000000	0.933123
1787.000000	0.925508
1786.000000	0.929700
1785.000000	0.928266
1784.000000	0.936322
1783.000000	0.929601
1782.000000	0.934361
1781.000000	0.932865
1780.000000	0.936704
1779.000000	0.929010
1778.000000	0.930083
1777.000000	0.940593
1776.000000	0.929034
1775.000000	0.936000
1774.000000	0.932922
1773.000000	0.931797
1772.000000	0.934698
1771.000000	0.941118
1770.000000	0.931666
1769.000000	0.931235
1768.000000	0.927375
1767.000000	0.927721
1766.000000	0.931873
1765.000000	0.934757
1764.000000	0.938249
1763.000000	0.928864
1762.000000	0.942601
1761.000000	0.937108
1760.000000	0.934419
1759.000000	0.929671
1758.000000	0.930702
1757.000000	0.938174
1756.000000	0.934502
1755.000000	0.928626
1754.000000	0.930437
1753.000000	0.933684
1752.000000	0.938351
1751.000000	0.929425
1750.000000	0.932890
1749.000000	0.936677
1748.000000	0.935081
1747.000000	0.934893
1746.000000	0.935983
1745.000000	0.938185
1744.000000	0.934842
1743.000000	0.929555
1742.000000	0.929001
1741.000000	0.940134
1740.000000	0.940950
1739.000000	0.933779
1738.000000	0.935964
1737.000000	0.936638
1736.000000	0.936432
1735.000000	0.927107
1734.000000	0.929527
1733.000000	0.929765
1732.000000	0.932261
1731.000000	0.933146
1730.000000	0.927991
1729.000000	0.929153
1728.000000	0.934609
1727.000000	0.933497
1726.000000	0.931040
1725.000000	0.935837
1724.000000	0.932899
1723.000000	0.930612
1722.000000	0.935534
1721.000000	0.929026
1720.000000	0.933803
1719.000000	0.933689
1718.000000	0.932256
1717.000000	0.930132
1716.000000	0.930568
1715.000000	0.936975
1714.000000	0.935363
1713.000000	0.935479
1712.000000	0.936487
1711.000000	0.932702
1710.000000	0.939832
1709.000000	0.938435
1708.000000	0.931373
1707.000000	0.934373
1706.000000	0.930653
1705.000000	0.933851
1704.000000	0.935934
1703.000000	0.936143
1702.000000	0.940012
1701.000000	0.939839
1700.000000	0.939339
1699.000000	0.938683
1698.000000	0.936526
1697.000000	0.937038
1696.000000	0.928382
1695.000000	0.932382
1694.000000	0.933565
1693.000000	0.932309
1692.000000	0.932429
1691.000000	0.935728
1690.000000	0.936677
1689.000000	0.935156
1688.000000	0.940557
1687.000000	0.939115
1686.000000	0.941028
1685.000000	0.937784
1684.000000	0.932341
1683.000000	0.934166
1682.000000	0.936206
1681.000000	0.933911
1680.000000	0.933864
1679.000000	0.934044
1678.000000	0.938781
1677.000000	0.940375
1676.000000	0.937469
1675.000000	0.937029
1674.000000	0.934669
1673.000000	0.929796
1672.000000	0.933710
1671.000000	0.934889
1670.000000	0.932765
1669.000000	0.935716
1668.000000	0.933546
1667.000000	0.932708
1666.000000	0.934432
1665.000000	0.935689
1664.000000	0.931644
1663.000000	0.932233
1662.000000	0.938769
1661.000000	0.935422
1660.000000	0.935006
1659.000000	0.939538
1658.000000	0.936514
1657.000000	0.933850
1656.000000	0.935518
1655.000000	0.937749
1654.000000	0.935866
1653.000000	0.935505
1652.000000	0.935682
1651.000000	0.934880
1650.000000	0.934886
1649.000000	0.935112
1648.000000	0.936253
1647.000000	0.934368
1646.000000	0.933697
1645.000000	0.934937
1644.000000	0.934791
1643.000000	0.934300
1642.000000	0.933248
1641.000000	0.932528
1640.000000	0.931672
1639.000000	0.930143
1638.000000	0.933231
1637.000000	0.937013
1636.000000	0.930739
1635.000000	0.929975
1634.000000	0.934793
1633.000000	0.937644
1632.000000	0.934405
1631.000000	0.934686
1630.000000	0.934636
1629.000000	0.933293
1628.000000	0.936045
1627.000000	0.933321
1626.000000	0.932908
1625.000000	0.936019
1624.000000	0.938451
1623.000000	0.937551
1622.000000	0.937600
1621.000000	0.937839
1620.000000	0.934716
1619.000000	0.935744
1618.000000	0.936178
1617.000000	0.933707
1616.000000	0.933211
1615.000000	0.935954
1614.000000	0.939757
1613.000000	0.939465
1612.000000	0.935806
1611.000000	0.934541
1610.000000	0.935932
1609.000000	0.935269
1608.000000	0.935809
1607.000000	0.937317
1606.000000	0.931981
1605.000000	0.931578
1604.000000	0.931700
1603.000000	0.935922
1602.000000	0.937724
1601.000000	0.939535
1600.000000	0.936142
1599.000000	0.936853
1598.000000	0.938471
1597.000000	0.934217
1596.000000	0.936921
1595.000000	0.935163
1594.000000	0.933037
1593.000000	0.937639
1592.000000	0.936331
1591.000000	0.937877
1590.000000	0.933349
1589.000000	0.937302
1588.000000	0.938913
1587.000000	0.934637
1586.000000	0.937652
1585.000000	0.938439
1584.000000	0.939606
1583.000000	0.936924
1582.000000	0.939619
1581.000000	0.939547
1580.000000	0.938758
1579.000000	0.937506
1578.000000	0.934867
1577.000000	0.937743
1576.000000	0.936953
1575.000000	0.938978
1574.000000	0.942129
1573.000000	0.938802
1572.000000	0.937905
1571.000000	0.940236
1570.000000	0.936150
1569.000000	0.937680
1568.000000	0.938523
1567.000000	0.936573
1566.000000	0.936124
1565.000000	0.936325
1564.000000	0.935751
1563.000000	0.936949
1562.000000	0.937331
1561.000000	0.941986
1560.000000	0.939232
1559.000000	0.938920
1558.000000	0.936766
1557.000000	0.938190
1556.000000	0.936201
1555.000000	0.934669
1554.000000	0.934139
1553.000000	0.933262
1552.000000	0.934762
1551.000000	0.935201
1550.000000	0.934710
1549.000000	0.937200
1548.000000	0.935226
1547.000000	0.932176
1546.000000	0.936471
1545.000000	0.934920
1544.000000	0.936735
1543.000000	0.943302
1542.000000	0.939608
1541.000000	0.931843
1540.000000	0.937877
1539.000000	0.936063
1538.000000	0.939036
1537.000000	0.937242
1536.000000	0.939636
1535.000000	0.935274
1534.000000	0.938110
1533.000000	0.944892
1532.000000	0.935293
1531.000000	0.940936
1530.000000	0.938185
1529.000000	0.936219
1528.000000	0.935306
1527.000000	0.938702
1526.000000	0.933291
1525.000000	0.936013
1524.000000	0.937247
1523.000000	0.941452
1522.000000	0.942628
1521.000000	0.939996
1520.000000	0.936687
1519.000000	0.936443
1518.000000	0.935231
1517.000000	0.935471
1516.000000	0.933857
1515.000000	0.934271
1514.000000	0.937458
1513.000000	0.934551
1512.000000	0.938054
1511.000000	0.939917
1510.000000	0.936558
1509.000000	0.939170
1508.000000	0.940608
1507.000000	0.937401
1506.000000	0.941296
1505.000000	0.932661
1504.000000	0.930865
1503.000000	0.936550
1502.000000	0.936180
1501.000000	0.938097
1500.000000	0.934064
1499.000000	0.936579
1498.000000	0.938840
1497.000000	0.933699
1496.000000	0.938859
1495.000000	0.939048
1494.000000	0.939213
1493.000000	0.936905
1492.000000	0.933585
1491.000000	0.935652
1490.000000	0.935150
1489.000000	0.937602
1488.000000	0.936982
1487.000000	0.938157
1486.000000	0.938335
1485.000000	0.936056
1484.000000	0.939016
1483.000000	0.935740
1482.000000	0.935195
1481.000000	0.934611
1480.000000	0.936396
1479.000000	0.934033
1478.000000	0.935211
1477.000000	0.936718
1476.000000	0.936813
1475.000000	0.932776
1474.000000	0.931031
1473.000000	0.934588
1472.000000	0.933604
1471.000000	0.932505
1470.000000	0.934195
1469.000000	0.930277
1468.000000	0.931991
1467.000000	0.930685
1466.000000	0.937549
1465.000000	0.937026
1464.000000	0.934637
1463.000000	0.936657
1462.000000	0.935965
1461.000000	0.934380
1460.000000	0.933340
1459.000000	0.933894
1458.000000	0.934455
1457.000000	0.936792
1456.000000	0.934730
1455.000000	0.932027
1454.000000	0.935564
1453.000000	0.931494
1452.000000	0.932722
1451.000000	0.932492
1450.000000	0.935084
1449.000000	0.935440
1448.000000	0.937153
1447.000000	0.934349
1446.000000	0.936480
1445.000000	0.933394
1444.000000	0.933429
1443.000000	0.933642
1442.000000	0.933035
1441.000000	0.934079
1440.000000	0.932454
1439.000000	0.932500
1438.000000	0.933648
1437.000000	0.932132
1436.000000	0.935280
1435.000000	0.934142
1434.000000	0.932795
1433.000000	0.931447
1432.000000	0.936212
1431.000000	0.934511
1430.000000	0.934540
1429.000000	0.934511
1428.000000	0.933459
1427.000000	0.933001
1426.000000	0.931307
1425.000000	0.933888
1424.000000	0.935868
1423.000000	0.935004
1422.000000	0.932738
1421.000000	0.932166
1420.000000	0.932456
1419.000000	0.932444
1418.000000	0.933087
1417.000000	0.931975
1416.000000	0.931677
1415.000000	0.931411
1414.000000	0.930242
1413.000000	0.929976
1412.000000	0.929508
1411.000000	0.929090
1410.000000	0.930128
1409.000000	0.932152
1408.000000	0.932455
1407.000000	0.932241
1406.000000	0.931190
1405.000000	0.929114
1404.000000	0.927777
1403.000000	0.927018
1402.000000	0.927690
1401.000000	0.928515
1400.000000	0.928504
1399.000000	0.929523
1398.000000	0.930663
1397.000000	0.931426
1396.000000	0.932042
1395.000000	0.931381
1394.000000	0.929639
1393.000000	0.927769
1392.000000	0.926292
1391.000000	0.926452
1390.000000	0.930320
1389.000000	0.932450
1388.000000	0.929739
1387.000000	0.929534
1386.000000	0.930379
1385.000000	0.931578
1384.000000	0.932738
1383.000000	0.932684
1382.000000	0.930886
1381.000000	0.929271
1380.000000	0.927957
1379.000000	0.926100
1378.000000	0.927382
1377.000000	0.928713
1376.000000	0.926815
1375.000000	0.927018
1374.000000	0.927904
1373.000000	0.928018
1372.000000	0.928491
1371.000000	0.929165
1370.000000	0.930485
1369.000000	0.930423
1368.000000	0.928835
1367.000000	0.929950
1366.000000	0.929123
1365.000000	0.928006
1364.000000	0.925801
1363.000000	0.925461
1362.000000	0.926288
1361.000000	0.928627
1360.000000	0.929708
1359.000000	0.931000
1358.000000	0.927221
1357.000000	0.927587
1356.000000	0.927763
1355.000000	0.928823
1354.000000	0.926243
1353.000000	0.927596
1352.000000	0.928564
1351.000000	0.927719
1350.000000	0.928473
1349.000000	0.927562
1348.000000	0.926976
1347.000000	0.925909
1346.000000	0.926291
1345.000000	0.925905
1344.000000	0.928567
1343.000000	0.928706
1342.000000	0.929235
1341.000000	0.930963
1340.000000	0.929589
1339.000000	0.928795
1338.000000	0.926326
1337.000000	0.927524
1336.000000	0.927177
1335.000000	0.927883
1334.000000	0.930047
1333.000000	0.929914
1332.000000	0.930808
1331.000000	0.927937
1330.000000	0.926216
1329.000000	0.926826
1328.000000	0.927227
1327.000000	0.926475
1326.000000	0.925937
1325.000000	0.927878
1324.000000	0.927429
1323.000000	0.930581
1322.000000	0.927530
1321.000000	0.926277
1320.000000	0.926850
1319.000000	0.928768
1318.000000	0.927574
1317.000000	0.928728
1316.000000	0.929747
1315.000000	0.928858
1314.000000	0.927871
1313.000000	0.930028
1312.000000	0.928984
1311.000000	0.928946
1310.000000	0.927457
1309.000000	0.929026
1308.000000	0.926825
1307.000000	0.928062
1306.000000	0.924993
1305.000000	0.924797
1304.000000	0.925997
1303.000000	0.928108
1302.000000	0.928052
1301.000000	0.930164
1300.000000	0.927553
1299.000000	0.926910
1298.000000	0.926056
1297.000000	0.927246
1296.000000	0.924574
1295.000000	0.926895
1294.000000	0.928535
1293.000000	0.926623
1292.000000	0.925141
1291.000000	0.924331
1290.000000	0.926587
1289.000000	0.927881
1288.000000	0.927857
1287.000000	0.927340
1286.000000	0.926715
1285.000000	0.926338
1284.000000	0.925808
1283.000000	0.927629
1282.000000	0.926275
1281.000000	0.925713
1280.000000	0.923135
1279.000000	0.926771
1278.000000	0.925778
1277.000000	0.924081
1276.000000	0.922647
1275.000000	0.925605
1274.000000	0.926497
1273.000000	0.926092
1272.000000	0.925381
1271.000000	0.925668
1270.000000	0.927570
1269.000000	0.924025
1268.000000	0.923392
1267.000000	0.924027
1266.000000	0.924331
1265.000000	0.923851
1264.000000	0.924350
1263.000000	0.923661
1262.000000	0.923788
1261.000000	0.924057
1260.000000	0.921970
1259.000000	0.921363
1258.000000	0.924008
1257.000000	0.921203
1256.000000	0.920927
1255.000000	0.923356
1254.000000	0.924371
1253.000000	0.924379
1252.000000	0.923227
1251.000000	0.923495
1250.000000	0.920527
1249.000000	0.922891
1248.000000	0.922402
1247.000000	0.922614
1246.000000	0.922132
1245.000000	0.923000
1244.000000	0.924506
1243.000000	0.922304
1242.000000	0.922627
1241.000000	0.923300
1240.000000	0.921814
1239.000000	0.921852
1238.000000	0.922733
1237.000000	0.920604
1236.000000	0.922211
1235.000000	0.921694
1234.000000	0.920895
1233.000000	0.922393
1232.000000	0.921556
1231.000000	0.922196
1230.000000	0.922799
1229.000000	0.920308
1228.000000	0.920292
1227.000000	0.920359
1226.000000	0.920626
1225.000000	0.918696
1224.000000	0.920856
1223.000000	0.921351
1222.000000	0.921445
1221.000000	0.920884
1220.000000	0.921111
1219.000000	0.921009
1218.000000	0.918449
1217.000000	0.919605
1216.000000	0.919054
1215.000000	0.920052
1214.000000	0.920832
1213.000000	0.921041
1212.000000	0.919815
1211.000000	0.918017
1210.000000	0.918344
1209.000000	0.919459
1208.000000	0.921019
1207.000000	0.921147
1206.000000	0.920419
1205.000000	0.919448
1204.000000	0.919257
1203.000000	0.918427
1202.000000	0.917691
1201.000000	0.917931
1200.000000	0.916856
1199.000000	0.916671
1198.000000	0.917013
1197.000000	0.918030
1196.000000	0.918575
1195.000000	0.920197
1194.000000	0.919875
1193.000000	0.917367
1192.000000	0.918437
1191.000000	0.918415
1190.000000	0.917168
1189.000000	0.916805
1188.000000	0.918207
1187.000000	0.918449
1186.000000	0.918760
1185.000000	0.918450
1184.000000	0.919653
1183.000000	0.918582
1182.000000	0.916510
1181.000000	0.915449
1180.000000	0.916296
1179.000000	0.916397
1178.000000	0.916213
1177.000000	0.916770
1176.000000	0.916521
1175.000000	0.915520
1174.000000	0.915578
1173.000000	0.915236
1172.000000	0.915237
1171.000000	0.916552
1170.000000	0.916112
1169.000000	0.916717
1168.000000	0.916886
1167.000000	0.917219
1166.000000	0.916438
1165.000000	0.914852
1164.000000	0.914703
1163.000000	0.915226
1162.000000	0.913379
1161.000000	0.913874
1160.000000	0.916273
1159.000000	0.915957
1158.000000	0.916087
1157.000000	0.917060
1156.000000	0.916075
1155.000000	0.915030
1154.000000	0.915785
1153.000000	0.915607
1152.000000	0.914790
1151.000000	0.913599
1150.000000	0.914340
1149.000000	0.913317
1148.000000	0.912320
1147.000000	0.913436
1146.000000	0.913906
1145.000000	0.914199
1144.000000	0.914788
1143.000000	0.914843
1142.000000	0.912201
1141.000000	0.912581
1140.000000	0.913076
1139.000000	0.911840
1138.000000	0.913254
1137.000000	0.912460
1136.000000	0.911629
1135.000000	0.911714
1134.000000	0.911889
1133.000000	0.912909
1132.000000	0.913340
1131.000000	0.913187
1130.000000	0.912868
1129.000000	0.912060
1128.000000	0.909824
1127.000000	0.910940
1126.000000	0.909998
1125.000000	0.908955
1124.000000	0.910825
1123.000000	0.913327
1122.000000	0.912347
1121.000000	0.912012
1120.000000	0.911893
1119.000000	0.909751
1118.000000	0.910955
1117.000000	0.912242
1116.000000	0.913268
1115.000000	0.912177
1114.000000	0.910734
1113.000000	0.910845
1112.000000	0.909880
1111.000000	0.912067
1110.000000	0.911813
1109.000000	0.909634
1108.000000	0.908565
1107.000000	0.910016
1106.000000	0.910827
1105.000000	0.907929
1104.000000	0.909654
1103.000000	0.909666
1102.000000	0.909262
1101.000000	0.906466
1100.000000	0.906569
1099.000000	0.908907
1098.000000	0.906746
1097.000000	0.908155
1096.000000	0.908127
1095.000000	0.905866
1094.000000	0.909811
1093.000000	0.908919
1092.000000	0.906918
1091.000000	0.908447
1090.000000	0.907416
1089.000000	0.908619
1088.000000	0.909714
1087.000000	0.908142
1086.000000	0.907830
1085.000000	0.906059
1084.000000	0.905213
1083.000000	0.904472
1082.000000	0.904618
1081.000000	0.903810
1080.000000	0.905846
1079.000000	0.905983
1078.000000	0.905864
1077.000000	0.905936
1076.000000	0.906644
1075.000000	0.908624
1074.000000	0.905269
1073.000000	0.902159
1072.000000	0.902729
1071.000000	0.903825
1070.000000	0.904539
1069.000000	0.905373
1068.000000	0.905921
1067.000000	0.903840
1066.000000	0.903310
1065.000000	0.901870
1064.000000	0.903746
1063.000000	0.905408
1062.000000	0.906748
1061.000000	0.909564
1060.000000	0.905414
1059.000000	0.900701
1058.000000	0.900288
1057.000000	0.899311
1056.000000	0.903491
1055.000000	0.902509
1054.000000	0.899310
1053.000000	0.901367
1052.000000	0.898807
1051.000000	0.904089
1050.000000	0.901575
1049.000000	0.904325
1048.000000	0.903484
1047.000000	0.899146
1046.000000	0.899962
1045.000000	0.899788
1044.000000	0.896263
1043.000000	0.899938
1042.000000	0.898443
1041.000000	0.903730
1040.000000	0.902473
1039.000000	0.901284
1038.000000	0.902057
1037.000000	0.897226
1036.000000	0.899603
1035.000000	0.899838
1034.000000	0.900060
1033.000000	0.905263
1032.000000	0.907580
1031.000000	0.900894
1030.000000	0.901111
1029.000000	0.897389
1028.000000	0.903176
1027.000000	0.897664
1026.000000	0.896853
1025.000000	0.900049
1024.000000	0.898141
1023.000000	0.897351
1022.000000	0.896967
1021.000000	0.898641
1020.000000	0.899668
1019.000000	0.899724
1018.000000	0.896960
1017.000000	0.896983
1016.000000	0.897130
1015.000000	0.899184
1014.000000	0.898478
1013.000000	0.900627
1012.000000	0.896297
1011.000000	0.894654
1010.000000	0.895493
1009.000000	0.900269
1008.000000	0.896897
1007.000000	0.894651
1006.000000	0.895278
1005.000000	0.896131
1004.000000	0.896411
1003.000000	0.895519
1002.000000	0.892432
1001.000000	0.891935
1000.000000	0.892568
999.000000	0.896247
998.000000	0.895402
997.000000	0.892222
996.000000	0.895522
995.000000	0.897822
994.000000	0.894014
993.000000	0.896063
992.000000	0.898663
991.000000	0.894030
990.000000	0.891111
989.000000	0.886356
988.000000	0.886978
987.000000	0.889759
986.000000	0.888578
985.000000	0.891833
984.000000	0.889481
983.000000	0.895014
982.000000	0.894289
981.000000	0.890649
980.000000	0.890834
979.000000	0.892462
978.000000	0.897531
977.000000	0.888670
976.000000	0.885884
975.000000	0.890985
974.000000	0.888210
973.000000	0.887428
972.000000	0.884555
971.000000	0.889789
970.000000	0.888556
969.000000	0.888962
968.000000	0.890249
967.000000	0.886330
966.000000	0.888160
965.000000	0.888537
964.000000	0.889317
963.000000	0.889418
962.000000	0.891011
961.000000	0.892000
960.000000	0.889849
959.000000	0.891418
958.000000	0.890626
957.000000	0.889137
956.000000	0.889026
955.000000	0.883145
954.000000	0.882519
953.000000	0.881725
952.000000	0.886606
951.000000	0.889744
950.000000	0.884367
949.000000	0.877200
948.000000	0.885808
947.000000	0.890720
946.000000	0.886060
945.000000	0.890801
944.000000	0.887434
943.000000	0.879806
942.000000	0.878414
941.000000	0.880513
940.000000	0.891340
939.000000	0.886925
938.000000	0.887203
937.000000	0.891091
936.000000	0.887121
935.000000	0.883473
934.000000	0.887382
933.000000	0.883452
932.000000	0.878180
931.000000	0.875299
930.000000	0.878787
929.000000	0.879090
928.000000	0.876959
927.000000	0.884448
926.000000	0.889579
925.000000	0.881915
924.000000	0.875781
923.000000	0.879152
922.000000	0.880784
921.000000	0.881915
920.000000	0.875198
919.000000	0.874402
918.000000	0.883180
917.000000	0.879807
916.000000	0.882290
915.000000	0.880200
914.000000	0.865477
913.000000	0.866138
912.000000	0.875166
911.000000	0.871771
910.000000	0.866853
909.000000	0.877458
908.000000	0.876328
907.000000	0.868512
906.000000	0.869470
905.000000	0.875779
904.000000	0.867439
903.000000	0.866627
902.000000	0.869731
901.000000	0.870360
900.000000	0.877539
899.000000	0.864393
898.000000	0.865308
897.000000	0.869912
896.000000	0.862793
895.000000	0.871892
894.000000	0.865513
893.000000	0.870588
892.000000	0.885014
891.000000	0.882479
890.000000	0.869942
889.000000	0.849331
888.000000	0.865452
887.000000	0.871979
886.000000	0.882387
885.000000	0.887445
884.000000	0.873332
883.000000	0.871201
882.000000	0.867309
881.000000	0.872633
880.000000	0.862468
879.000000	0.877711
878.000000	0.868432
877.000000	0.873828
876.000000	0.873167
875.000000	0.857483
874.000000	0.855005
873.000000	0.852626
872.000000	0.830497
871.000000	0.844008
870.000000	0.865696
869.000000	0.855904
868.000000	0.850784
867.000000	0.878020
866.000000	0.907886
865.000000	0.927128
864.000000	0.927221
863.000000	0.870851
862.000000	0.856282
861.000000	0.873835
860.000000	0.885514
859.000000	0.886981
858.000000	0.896348
857.000000	0.903204
856.000000	0.889611
855.000000	0.882864
854.000000	0.879797
853.000000	0.882854
852.000000	0.890322
851.000000	0.890313
850.000000	0.888477
849.000000	0.888682
848.000000	0.892899
847.000000	0.884703
846.000000	0.886259
845.000000	0.886311
844.000000	0.882276
843.000000	0.881381
842.000000	0.883097
841.000000	0.883288
840.000000	0.878933
839.000000	0.881938
838.000000	0.877048
837.000000	0.878714
836.000000	0.878037
835.000000	0.875323
834.000000	0.872810
833.000000	0.873541
832.000000	0.875254
831.000000	0.874939
830.000000	0.873448
829.000000	0.873560
828.000000	0.873140
827.000000	0.875864
826.000000	0.872367
825.000000	0.871605
824.000000	0.874423
823.000000	0.873301
822.000000	0.869708
821.000000	0.868424
820.000000	0.869767
819.000000	0.870732
818.000000	0.871252
817.000000	0.869122
816.000000	0.871571
815.000000	0.871208
814.000000	0.869157
813.000000	0.866727
812.000000	0.865851
811.000000	0.865865
810.000000	0.865632
809.000000	0.865547
808.000000	0.865818
807.000000	0.862732
806.000000	0.865412
805.000000	0.866775
804.000000	0.865421
803.000000	0.864131
802.000000	0.861813
801.000000	0.862983
800.000000	0.863315
799.000000	0.862134
798.000000	0.862210
797.000000	0.863144
796.000000	0.861428
795.000000	0.860057
794.000000	0.861429
793.000000	0.860766
792.000000	0.861007
791.000000	0.861738
790.000000	0.861283
789.000000	0.859196
788.000000	0.861314
787.000000	0.860821
786.000000	0.858122
785.000000	0.858510
784.000000	0.858802
783.000000	0.857925
782.000000	0.856550
781.000000	0.855851
780.000000	0.857984
779.000000	0.859110
778.000000	0.855426
777.000000	0.855145
776.000000	0.854301
775.000000	0.854685
774.000000	0.854857
773.000000	0.855886
772.000000	0.855137
771.000000	0.854364
770.000000	0.855225
769.000000	0.853902
768.000000	0.855626
767.000000	0.854670
766.000000	0.854243
765.000000	0.852391
764.000000	0.854502
763.000000	0.853290
762.000000	0.853667
761.000000	0.854133
760.000000	0.853892
759.000000	0.854178
758.000000	0.853361
757.000000	0.853175
756.000000	0.853562
755.000000	0.854839
754.000000	0.854586
753.000000	0.856577
752.000000	0.857559
751.000000	0.857608
750.000000	0.857690
749.000000	0.858255
748.000000	0.860328
747.000000	0.860403
746.000000	0.858531
745.000000	0.860081
744.000000	0.861922
743.000000	0.862510
742.000000	0.863100
741.000000	0.864493
740.000000	0.865328
739.000000	0.865415
738.000000	0.866681
737.000000	0.867829
736.000000	0.868512
735.000000	0.868509
734.000000	0.869650
733.000000	0.869791
732.000000	0.869709
731.000000	0.870678
730.000000	0.871805
729.000000	0.872546
728.000000	0.874028
727.000000	0.874414
726.000000	0.875415
725.000000	0.875197
724.000000	0.876437
723.000000	0.876646
722.000000	0.876554
721.000000	0.877008
720.000000	0.876050
719.000000	0.876357
718.000000	0.877969
717.000000	0.878147
716.000000	0.877574
715.000000	0.878157
714.000000	0.877758
713.000000	0.877039
712.000000	0.876300
711.000000	0.875906
710.000000	0.875512
709.000000	0.874896
708.000000	0.873864
707.000000	0.872666
706.000000	0.872950
705.000000	0.871141
704.000000	0.870763
703.000000	0.869592
702.000000	0.868776
701.000000	0.867895
700.000000	0.867194
699.000000	0.866960
698.000000	0.865843
697.000000	0.864536
696.000000	0.862732
695.000000	0.861850
694.000000	0.860698
693.000000	0.860053
692.000000	0.858868
691.000000	0.858053
690.000000	0.856916
689.000000	0.856698
688.000000	0.855284
687.000000	0.854758
686.000000	0.854195
685.000000	0.853352
684.000000	0.852459
683.000000	0.851986
682.000000	0.851479
681.000000	0.850189
680.000000	0.849928
679.000000	0.848974
678.000000	0.847470
677.000000	0.847773
676.000000	0.847053
675.000000	0.846686
674.000000	0.846659
673.000000	0.844967
672.000000	0.844347
671.000000	0.844471
670.000000	0.843875
669.000000	0.843104
668.000000	0.842398
667.000000	0.842537
666.000000	0.842496
665.000000	0.841588
664.000000	0.840693
663.000000	0.840854
662.000000	0.841698
661.000000	0.841386
660.000000	0.841005
659.000000	0.839718
658.000000	0.839477
657.000000	0.840171
656.000000	0.840446
655.000000	0.840367
654.000000	0.840442
653.000000	0.840539
652.000000	0.840034
651.000000	0.839761
650.000000	0.840131
649.000000	0.840385
648.000000	0.840169
647.000000	0.839393
646.000000	0.839313
645.000000	0.838897
644.000000	0.838978
643.000000	0.839227
642.000000	0.838375
641.000000	0.837821
640.000000	0.837487
639.000000	0.836897
638.000000	0.836780
637.000000	0.836685
636.000000	0.836107
635.000000	0.835845
634.000000	0.835151
633.000000	0.834353
632.000000	0.834136
631.000000	0.833339
630.000000	0.833038
629.000000	0.832462
628.000000	0.832086
627.000000	0.831752
626.000000	0.830516
625.000000	0.830181
624.000000	0.830082
623.000000	0.829018
622.000000	0.828653
621.000000	0.828925
620.000000	0.828200
619.000000	0.827282
618.000000	0.826843
617.000000	0.826279
616.000000	0.826000
615.000000	0.825574
614.000000	0.824511
613.000000	0.824295
612.000000	0.823408
611.000000	0.822567
610.000000	0.821978
609.000000	0.820780
608.000000	0.820452
607.000000	0.819840
606.000000	0.818936
605.000000	0.818290
604.000000	0.817754
603.000000	0.816885
602.000000	0.816228
601.000000	0.815179
600.000000	0.813997
599.000000	0.813378
598.000000	0.812426
597.000000	0.811506
596.000000	0.810568
595.000000	0.809827
594.000000	0.809571
593.000000	0.808695
592.000000	0.808287
591.000000	0.807533
590.000000	0.807346
589.000000	0.806802
588.000000	0.806653
587.000000	0.806694
586.000000	0.805676
585.000000	0.806044
584.000000	0.806161
583.000000	0.806481
582.000000	0.806928
581.000000	0.807895
580.000000	0.808339
579.000000	0.809087
578.000000	0.810513
577.000000	0.812108
576.000000	0.813413
575.000000	0.814653
574.000000	0.816770
573.000000	0.818635
572.000000	0.820058
571.000000	0.820781
570.000000	0.821468
569.000000	0.822348
568.000000	0.823146
567.000000	0.822224
566.000000	0.821541
565.000000	0.821344
564.000000	0.820544
563.000000	0.819827
562.000000	0.818694
561.000000	0.817084
560.000000	0.815799
559.000000	0.814832
558.000000	0.813071
557.000000	0.812042
556.000000	0.810899
555.000000	0.809402
554.000000	0.807897
553.000000	0.806579
552.000000	0.805765
551.000000	0.804838
550.000000	0.802726
549.000000	0.801932
548.000000	0.800722
547.000000	0.800114
546.000000	0.799000
545.000000	0.797774
544.000000	0.796903
543.000000	0.795879
542.000000	0.794740
541.000000	0.794043
540.000000	0.793475
539.000000	0.792349
538.000000	0.791597
537.000000	0.790921
536.000000	0.790578
535.000000	0.789889
534.000000	0.789251
533.000000	0.788910
532.000000	0.787896
531.000000	0.787581
530.000000	0.787125
529.000000	0.786699
528.000000	0.786134
527.000000	0.786338
526.000000	0.785281
525.000000	0.784796
524.000000	0.784444
523.000000	0.784020
522.000000	0.783278
521.000000	0.783000
520.000000	0.782146
519.000000	0.781892
518.000000	0.781355
517.000000	0.780941
516.000000	0.780821
515.000000	0.780356
514.000000	0.780358
513.000000	0.780567
512.000000	0.781107
511.000000	0.780793
510.000000	0.780853
509.000000	0.781339
508.000000	0.781783
507.000000	0.781356
506.000000	0.783261
505.000000	0.782024
504.000000	0.783139
503.000000	0.783776
502.000000	0.784244
501.000000	0.784364
500.000000	0.784181
499.000000	0.784251
498.000000	0.784208
497.000000	0.783807
496.000000	0.783120
495.000000	0.783271
494.000000	0.783444
493.000000	0.783363
492.000000	0.782875
491.000000	0.783183
490.000000	0.781734
489.000000	0.781166
488.000000	0.781188
487.000000	0.781174
486.000000	0.780407
485.000000	0.780005
484.000000	0.779840
483.000000	0.779048
482.000000	0.779397
481.000000	0.778317
480.000000	0.777565
479.000000	0.777118
478.000000	0.775854
477.000000	0.775588
476.000000	0.774898
475.000000	0.774285
474.000000	0.773423
473.000000	0.772584
472.000000	0.772361
471.000000	0.771298
470.000000	0.770138
469.000000	0.770031
468.000000	0.769589
467.000000	0.768269
466.000000	0.767431
465.000000	0.767245
464.000000	0.766498
463.000000	0.766077
462.000000	0.765581
461.000000	0.764745
460.000000	0.763808
459.000000	0.763452
458.000000	0.762889
457.000000	0.762587
456.000000	0.761530
455.000000	0.760992
454.000000	0.761008
453.000000	0.760609
452.000000	0.760089
451.000000	0.759206
450.000000	0.759148
449.000000	0.758565
448.000000	0.758535
447.000000	0.757292
446.000000	0.757028
445.000000	0.756999
444.000000	0.756696
443.000000	0.756275
442.000000	0.756419
441.000000	0.755860
440.000000	0.755287
439.000000	0.755100
438.000000	0.754286
437.000000	0.753863
436.000000	0.752569
435.000000	0.752267
434.000000	0.752521
433.000000	0.751579
432.000000	0.751003
431.000000	0.751133
430.000000	0.750231
429.000000	0.748772
428.000000	0.748883
427.000000	0.748211
426.000000	0.747231
425.000000	0.747011
424.000000	0.746612
423.000000	0.745802
422.000000	0.745261
421.000000	0.744989
420.000000	0.744201
419.000000	0.742988
418.000000	0.742451
417.000000	0.741882
416.000000	0.741280
415.000000	0.740429
414.000000	0.740324
413.000000	0.740243
412.000000	0.739837
411.000000	0.739893
410.000000	0.739727
409.000000	0.739433
408.000000	0.739944
407.000000	0.741516
406.000000	0.743240
405.000000	0.745043
404.000000	0.748115
403.000000	0.752275
402.000000	0.756894
401.000000	0.761161
400.000000	0.767459
399.000000	0.774542
398.000000	0.782646
397.000000	0.791312
396.000000	0.800790
395.000000	0.812764
394.000000	0.825126
393.000000	0.837130
392.000000	0.851367
391.000000	0.866868
390.000000	0.881332
389.000000	0.895705
388.000000	0.911113
387.000000	0.926067
386.000000	0.940159
385.000000	0.953313
384.000000	0.966893
383.000000	0.979614
382.000000	0.991267
381.000000	1.002628
380.000000	1.013455
379.000000	1.026080
378.000000	1.038268
377.000000	1.048138
376.000000	1.057148
375.000000	1.065117
374.000000	1.073553
373.000000	1.081077
372.000000	1.086602
371.000000	1.094217
370.000000	1.100749
369.000000	1.106007
368.000000	1.111809
367.000000	1.117248
366.000000	1.125185
365.000000	1.130140
364.000000	1.134504
363.000000	1.140020
362.000000	1.143895
361.000000	1.147297
360.000000	1.151644
359.000000	1.155039
358.000000	1.158398
357.000000	1.162062
356.000000	1.165459
355.000000	1.169855
354.000000	1.171842
353.000000	1.174428
352.000000	1.177180
351.000000	1.177975
350.000000	1.178462
349.000000	1.179224
348.000000	1.179555
347.000000	1.180469
346.000000	1.181520
345.000000	1.181758
344.000000	1.181528
343.000000	1.182755
342.000000	1.181083
341.000000	1.180014
340.000000	1.182387
339.000000	1.180977
338.000000	1.177034
337.000000	1.177500
336.000000	1.177478
335.000000	1.175330
334.000000	1.172368
333.000000	1.170923
332.000000	1.173670
331.000000	1.172196
330.000000	1.168943
329.000000	1.168295
328.000000	1.163427
327.000000	1.163427
326.000000	1.161784
325.000000	1.161900
324.000000	1.160301
323.000000	1.158020
322.000000	1.157264
321.000000	1.157050
320.000000	1.154445
319.000000	1.154110
318.000000	1.156850
317.000000	1.156707
316.000000	1.156973
315.000000	1.155153
314.000000	1.154259
313.000000	1.155609
312.000000	1.154931
311.000000	1.156620
310.000000	1.155220
309.000000	1.155491
308.000000	1.156404
307.000000	1.156150
306.000000	1.153279
305.000000	1.152844
304.000000	1.156036
303.000000	1.156217
302.000000	1.157607
301.000000	1.158039
300.000000	1.160960
299.000000	1.159605
298.000000	1.162316
297.000000	1.166014
296.000000	1.165419
295.000000	1.164479
294.000000	1.170072
293.000000	1.170919
292.000000	1.172682
291.000000	1.173548
290.000000	1.175909
289.000000	1.175736
288.000000	1.177397
287.000000	1.171558
286.000000	1.176536
285.000000	1.176922
284.000000	1.180028
283.000000	1.181044
282.000000	1.179479
281.000000	1.180214
280.000000	1.182623
279.000000	1.181193
278.000000	1.181015
277.000000	1.183145
276.000000	1.183633
275.000000	1.186499
274.000000	1.186037
273.000000	1.187506
272.000000	1.186571
271.000000	1.185947
270.000000	1.188120
269.000000	1.186365
268.000000	1.191409
267.000000	1.189486
266.000000	1.189714
265.000000	1.193715
264.000000	1.191799
263.000000	1.192112
262.000000	1.193814
261.000000	1.193734
260.000000	1.196488
259.000000	1.197542
258.000000	1.195991
257.000000	1.197752
256.000000	1.198761
255.000000	1.199359
254.000000	1.200776
253.000000	1.199713
252.000000	1.204454
251.000000	1.204192
250.000000	1.203710
249.000000	1.206185
248.000000	1.205838
247.000000	1.204031
246.000000	1.203925
245.000000	1.207054
244.000000	1.204448
243.000000	1.207553
242.000000	1.207243
241.000000	1.206239
240.000000	1.205585
239.000000	1.207717
238.000000	1.203292
237.000000	1.206234
236.000000	1.205551
235.000000	1.205798
234.000000	1.203274
233.000000	1.203375
232.000000	1.204511
231.000000	1.201843
230.000000	1.200912
229.000000	1.202715
228.000000	1.199570
227.000000	1.197961
226.000000	1.196748
225.000000	1.195510
224.000000	1.193661
223.000000	1.191045
222.000000	1.192047
221.000000	1.188403
220.000000	1.191549
219.000000	1.187247
218.000000	1.184984
217.000000	1.181554
216.000000	1.183927
215.000000	1.179860
214.000000	1.177277
213.000000	1.178356
212.000000	1.178674
211.000000	1.177863
210.000000	1.175786
209.000000	1.169497
208.000000	1.173517
207.000000	1.173963
206.000000	1.168022
205.000000	1.166247
204.000000	1.162871
203.000000	1.161142
202.000000	1.156834
201.000000	1.155420
200.000000	1.149752
199.000000	1.138418
198.000000	1.134834
197.000000	1.131897
196.000000	1.131588
195.000000	1.119073
194.000000	1.099298
193.000000	1.077879
192.000000	1.029315
191.000000	0.987645
190.000000	0.889167
189.000000	0.686693
188.000000	0.410270
187.000000	0.110687
186.000000	0.022285
185.000000	0.009742
184.000000	0.020499
183.000000	0.007216
182.000000	0.023897
181.000000	0.004780
180.000000	-0.002456
179.000000	-0.022379
178.000000	-0.021908
177.000000	-0.008609
176.000000	-0.010562
175.000000	0.009674
