PE UV       SUBTECH     SPECTRUM    ASCII       PEDS        4.00        
   -1
Sample7.Sample.Raw.asc
25/05/30
12:20:53.00
25/05/30
12:20:53.00
tom jordan
CISRO R3
175.000000
1
Lambda 1050
1050L1807051
PerkinElmer UV WinLab 6.4.0.973 / 2.02.06 Lambda 900 UV/VIS/NIR, Jan 28 2016 16:58:34

0
0
3350/servo 860.8/2
0
0
UV/VIS
1
1
1
RBeamAtt,SBeamAtt,150mm sphere / downward view, WB InGaAs Detector
0
0
0
0
Program
Program
3350/servo 860.8/2
3350/0.2 860.8/0.2
3350/0.2 860.8/0.2
0
1.00
 
 
 
0
 
860.8
319.2
860.8
Front
100
 
S:100 R:100
 
0
0
0
 
0
 
 
 
0
 
 
0
0
0
0
0
 
 
 
 
0
0


0
0
#HDR
-1
-1
#GR
nm
A
1.0
0.0
2000.000000
-1.000000
1826
8
1.202893
-0.011194
#DATA
2000.000000	0.914254
1999.000000	0.909197
1998.000000	0.922418
1997.000000	0.915288
1996.000000	0.917612
1995.000000	0.932682
1994.000000	0.925066
1993.000000	0.913275
1992.000000	0.922479
1991.000000	0.926941
1990.000000	0.917491
1989.000000	0.922241
1988.000000	0.924658
1987.000000	0.926818
1986.000000	0.932687
1985.000000	0.931688
1984.000000	0.917257
1983.000000	0.914613
1982.000000	0.922582
1981.000000	0.922391
1980.000000	0.934451
1979.000000	0.924756
1978.000000	0.931763
1977.000000	0.925502
1976.000000	0.921828
1975.000000	0.913122
1974.000000	0.920836
1973.000000	0.928917
1972.000000	0.932533
1971.000000	0.930785
1970.000000	0.935221
1969.000000	0.929955
1968.000000	0.926595
1967.000000	0.935037
1966.000000	0.931529
1965.000000	0.939592
1964.000000	0.924501
1963.000000	0.929316
1962.000000	0.927910
1961.000000	0.939795
1960.000000	0.942908
1959.000000	0.931909
1958.000000	0.919766
1957.000000	0.915378
1956.000000	0.925639
1955.000000	0.930659
1954.000000	0.946792
1953.000000	0.936121
1952.000000	0.945133
1951.000000	0.939066
1950.000000	0.918207
1949.000000	0.917982
1948.000000	0.932062
1947.000000	0.925733
1946.000000	0.920435
1945.000000	0.935659
1944.000000	0.933189
1943.000000	0.931280
1942.000000	0.932886
1941.000000	0.928942
1940.000000	0.920048
1939.000000	0.928751
1938.000000	0.929152
1937.000000	0.935846
1936.000000	0.919305
1935.000000	0.915211
1934.000000	0.928477
1933.000000	0.932392
1932.000000	0.919712
1931.000000	0.913766
1930.000000	0.918405
1929.000000	0.923185
1928.000000	0.940720
1927.000000	0.929419
1926.000000	0.928688
1925.000000	0.924332
1924.000000	0.927067
1923.000000	0.937287
1922.000000	0.937839
1921.000000	0.940201
1920.000000	0.928747
1919.000000	0.930223
1918.000000	0.922660
1917.000000	0.933262
1916.000000	0.938172
1915.000000	0.922947
1914.000000	0.914743
1913.000000	0.923382
1912.000000	0.926397
1911.000000	0.924735
1910.000000	0.917659
1909.000000	0.925309
1908.000000	0.939022
1907.000000	0.928786
1906.000000	0.925116
1905.000000	0.913125
1904.000000	0.920374
1903.000000	0.923735
1902.000000	0.925898
1901.000000	0.926202
1900.000000	0.921493
1899.000000	0.922476
1898.000000	0.923217
1897.000000	0.923597
1896.000000	0.929731
1895.000000	0.927607
1894.000000	0.926926
1893.000000	0.931705
1892.000000	0.923471
1891.000000	0.920586
1890.000000	0.917891
1889.000000	0.918420
1888.000000	0.923119
1887.000000	0.926260
1886.000000	0.926684
1885.000000	0.929335
1884.000000	0.925232
1883.000000	0.918271
1882.000000	0.913203
1881.000000	0.913151
1880.000000	0.918220
1879.000000	0.922446
1878.000000	0.925582
1877.000000	0.922875
1876.000000	0.922036
1875.000000	0.919116
1874.000000	0.918028
1873.000000	0.910587
1872.000000	0.912671
1871.000000	0.919490
1870.000000	0.923677
1869.000000	0.922295
1868.000000	0.921877
1867.000000	0.921660
1866.000000	0.916185
1865.000000	0.919835
1864.000000	0.917095
1863.000000	0.917863
1862.000000	0.915560
1861.000000	0.913881
1860.000000	0.922700
1859.000000	0.927137
1858.000000	0.923253
1857.000000	0.925335
1856.000000	0.927054
1855.000000	0.922999
1854.000000	0.921324
1853.000000	0.922742
1852.000000	0.926203
1851.000000	0.927222
1850.000000	0.925123
1849.000000	0.922677
1848.000000	0.923957
1847.000000	0.921322
1846.000000	0.921513
1845.000000	0.920980
1844.000000	0.923619
1843.000000	0.928522
1842.000000	0.927995
1841.000000	0.931557
1840.000000	0.925917
1839.000000	0.918324
1838.000000	0.914002
1837.000000	0.916839
1836.000000	0.926612
1835.000000	0.928784
1834.000000	0.927428
1833.000000	0.929100
1832.000000	0.926884
1831.000000	0.927815
1830.000000	0.926686
1829.000000	0.925658
1828.000000	0.928401
1827.000000	0.926829
1826.000000	0.927899
1825.000000	0.931527
1824.000000	0.929463
1823.000000	0.929873
1822.000000	0.929598
1821.000000	0.933097
1820.000000	0.924065
1819.000000	0.930273
1818.000000	0.933600
1817.000000	0.935444
1816.000000	0.931653
1815.000000	0.933455
1814.000000	0.933141
1813.000000	0.929872
1812.000000	0.934015
1811.000000	0.931062
1810.000000	0.933656
1809.000000	0.930792
1808.000000	0.929546
1807.000000	0.928334
1806.000000	0.929446
1805.000000	0.927411
1804.000000	0.930353
1803.000000	0.934181
1802.000000	0.935495
1801.000000	0.934274
1800.000000	0.931484
1799.000000	0.930814
1798.000000	0.933873
1797.000000	0.931437
1796.000000	0.934781
1795.000000	0.932565
1794.000000	0.930628
1793.000000	0.934280
1792.000000	0.932061
1791.000000	0.928970
1790.000000	0.931634
1789.000000	0.928182
1788.000000	0.939477
1787.000000	0.931991
1786.000000	0.929748
1785.000000	0.932531
1784.000000	0.931737
1783.000000	0.929927
1782.000000	0.930152
1781.000000	0.931867
1780.000000	0.934265
1779.000000	0.930739
1778.000000	0.933391
1777.000000	0.930508
1776.000000	0.927286
1775.000000	0.931333
1774.000000	0.933197
1773.000000	0.929272
1772.000000	0.931069
1771.000000	0.924721
1770.000000	0.936833
1769.000000	0.935280
1768.000000	0.934056
1767.000000	0.926616
1766.000000	0.932692
1765.000000	0.930576
1764.000000	0.930588
1763.000000	0.926665
1762.000000	0.926570
1761.000000	0.931716
1760.000000	0.936823
1759.000000	0.929031
1758.000000	0.931971
1757.000000	0.929655
1756.000000	0.933058
1755.000000	0.933234
1754.000000	0.925645
1753.000000	0.933770
1752.000000	0.930549
1751.000000	0.930676
1750.000000	0.931561
1749.000000	0.928223
1748.000000	0.926646
1747.000000	0.933735
1746.000000	0.934324
1745.000000	0.930614
1744.000000	0.930112
1743.000000	0.933812
1742.000000	0.932708
1741.000000	0.926094
1740.000000	0.935815
1739.000000	0.928114
1738.000000	0.928739
1737.000000	0.929456
1736.000000	0.929433
1735.000000	0.930112
1734.000000	0.928247
1733.000000	0.927586
1732.000000	0.924459
1731.000000	0.934465
1730.000000	0.934531
1729.000000	0.934908
1728.000000	0.926571
1727.000000	0.927508
1726.000000	0.926087
1725.000000	0.926937
1724.000000	0.925584
1723.000000	0.930473
1722.000000	0.934909
1721.000000	0.933013
1720.000000	0.931469
1719.000000	0.927621
1718.000000	0.929716
1717.000000	0.927694
1716.000000	0.928007
1715.000000	0.927888
1714.000000	0.930828
1713.000000	0.931718
1712.000000	0.930296
1711.000000	0.929491
1710.000000	0.934142
1709.000000	0.933468
1708.000000	0.930027
1707.000000	0.930567
1706.000000	0.928580
1705.000000	0.929401
1704.000000	0.931237
1703.000000	0.934768
1702.000000	0.933723
1701.000000	0.931066
1700.000000	0.928276
1699.000000	0.932357
1698.000000	0.931949
1697.000000	0.931200
1696.000000	0.928167
1695.000000	0.930849
1694.000000	0.934086
1693.000000	0.931039
1692.000000	0.928418
1691.000000	0.928002
1690.000000	0.932279
1689.000000	0.932279
1688.000000	0.930859
1687.000000	0.929214
1686.000000	0.929876
1685.000000	0.930494
1684.000000	0.926395
1683.000000	0.927885
1682.000000	0.930898
1681.000000	0.936112
1680.000000	0.935146
1679.000000	0.933214
1678.000000	0.931164
1677.000000	0.934995
1676.000000	0.930017
1675.000000	0.931539
1674.000000	0.931761
1673.000000	0.932658
1672.000000	0.932911
1671.000000	0.930374
1670.000000	0.932080
1669.000000	0.932586
1668.000000	0.931364
1667.000000	0.929062
1666.000000	0.927145
1665.000000	0.927263
1664.000000	0.928680
1663.000000	0.927997
1662.000000	0.925627
1661.000000	0.928819
1660.000000	0.933311
1659.000000	0.934238
1658.000000	0.930903
1657.000000	0.932677
1656.000000	0.934046
1655.000000	0.932284
1654.000000	0.931012
1653.000000	0.932685
1652.000000	0.935300
1651.000000	0.934634
1650.000000	0.932661
1649.000000	0.930534
1648.000000	0.931132
1647.000000	0.932505
1646.000000	0.932330
1645.000000	0.931952
1644.000000	0.933901
1643.000000	0.934810
1642.000000	0.932863
1641.000000	0.932940
1640.000000	0.934035
1639.000000	0.933373
1638.000000	0.935063
1637.000000	0.934482
1636.000000	0.933134
1635.000000	0.932031
1634.000000	0.931425
1633.000000	0.931802
1632.000000	0.933467
1631.000000	0.931227
1630.000000	0.932786
1629.000000	0.934231
1628.000000	0.932676
1627.000000	0.933883
1626.000000	0.931509
1625.000000	0.929905
1624.000000	0.931257
1623.000000	0.934095
1622.000000	0.933835
1621.000000	0.932688
1620.000000	0.932046
1619.000000	0.931595
1618.000000	0.931397
1617.000000	0.933245
1616.000000	0.934797
1615.000000	0.932798
1614.000000	0.933121
1613.000000	0.932880
1612.000000	0.933447
1611.000000	0.933320
1610.000000	0.932425
1609.000000	0.932005
1608.000000	0.931601
1607.000000	0.932510
1606.000000	0.933930
1605.000000	0.932762
1604.000000	0.933595
1603.000000	0.935550
1602.000000	0.935762
1601.000000	0.933085
1600.000000	0.932042
1599.000000	0.932329
1598.000000	0.933072
1597.000000	0.933059
1596.000000	0.932017
1595.000000	0.932769
1594.000000	0.932859
1593.000000	0.935439
1592.000000	0.934850
1591.000000	0.934692
1590.000000	0.933969
1589.000000	0.931884
1588.000000	0.933844
1587.000000	0.935075
1586.000000	0.937681
1585.000000	0.935019
1584.000000	0.933873
1583.000000	0.932980
1582.000000	0.932173
1581.000000	0.933453
1580.000000	0.936234
1579.000000	0.935245
1578.000000	0.935522
1577.000000	0.936208
1576.000000	0.937858
1575.000000	0.934926
1574.000000	0.932251
1573.000000	0.931117
1572.000000	0.930919
1571.000000	0.932386
1570.000000	0.930563
1569.000000	0.932628
1568.000000	0.934243
1567.000000	0.933020
1566.000000	0.934870
1565.000000	0.934427
1564.000000	0.932006
1563.000000	0.935948
1562.000000	0.936819
1561.000000	0.930782
1560.000000	0.935057
1559.000000	0.934126
1558.000000	0.934482
1557.000000	0.930585
1556.000000	0.935158
1555.000000	0.937175
1554.000000	0.935269
1553.000000	0.932927
1552.000000	0.930876
1551.000000	0.936383
1550.000000	0.935307
1549.000000	0.936590
1548.000000	0.932985
1547.000000	0.935546
1546.000000	0.929290
1545.000000	0.934656
1544.000000	0.935038
1543.000000	0.935023
1542.000000	0.935327
1541.000000	0.933843
1540.000000	0.934105
1539.000000	0.933481
1538.000000	0.931125
1537.000000	0.929207
1536.000000	0.932010
1535.000000	0.933642
1534.000000	0.933817
1533.000000	0.934851
1532.000000	0.934215
1531.000000	0.935027
1530.000000	0.932677
1529.000000	0.932655
1528.000000	0.933720
1527.000000	0.932217
1526.000000	0.930299
1525.000000	0.931156
1524.000000	0.933881
1523.000000	0.935050
1522.000000	0.933465
1521.000000	0.936507
1520.000000	0.934799
1519.000000	0.933820
1518.000000	0.935741
1517.000000	0.934461
1516.000000	0.932621
1515.000000	0.931548
1514.000000	0.934701
1513.000000	0.933218
1512.000000	0.934113
1511.000000	0.935072
1510.000000	0.933692
1509.000000	0.933361
1508.000000	0.932079
1507.000000	0.933429
1506.000000	0.932155
1505.000000	0.931504
1504.000000	0.932081
1503.000000	0.933949
1502.000000	0.933830
1501.000000	0.932971
1500.000000	0.933685
1499.000000	0.932246
1498.000000	0.932314
1497.000000	0.932105
1496.000000	0.934940
1495.000000	0.933221
1494.000000	0.935540
1493.000000	0.933348
1492.000000	0.931752
1491.000000	0.933824
1490.000000	0.933513
1489.000000	0.934191
1488.000000	0.934069
1487.000000	0.930889
1486.000000	0.931654
1485.000000	0.931319
1484.000000	0.933351
1483.000000	0.936271
1482.000000	0.932594
1481.000000	0.931947
1480.000000	0.932450
1479.000000	0.932000
1478.000000	0.932508
1477.000000	0.932049
1476.000000	0.930136
1475.000000	0.931440
1474.000000	0.931875
1473.000000	0.932515
1472.000000	0.933565
1471.000000	0.931546
1470.000000	0.931657
1469.000000	0.928186
1468.000000	0.928250
1467.000000	0.931351
1466.000000	0.931984
1465.000000	0.931509
1464.000000	0.931492
1463.000000	0.929932
1462.000000	0.930477
1461.000000	0.933227
1460.000000	0.932104
1459.000000	0.932479
1458.000000	0.930745
1457.000000	0.931516
1456.000000	0.930357
1455.000000	0.931346
1454.000000	0.930443
1453.000000	0.930242
1452.000000	0.930814
1451.000000	0.929502
1450.000000	0.929492
1449.000000	0.930671
1448.000000	0.932383
1447.000000	0.932192
1446.000000	0.930236
1445.000000	0.929721
1444.000000	0.932292
1443.000000	0.930188
1442.000000	0.929017
1441.000000	0.929562
1440.000000	0.930402
1439.000000	0.931961
1438.000000	0.933003
1437.000000	0.932018
1436.000000	0.931693
1435.000000	0.931117
1434.000000	0.928592
1433.000000	0.929804
1432.000000	0.931094
1431.000000	0.931418
1430.000000	0.933082
1429.000000	0.932881
1428.000000	0.930014
1427.000000	0.929291
1426.000000	0.927862
1425.000000	0.929010
1424.000000	0.930854
1423.000000	0.931009
1422.000000	0.930901
1421.000000	0.928963
1420.000000	0.928392
1419.000000	0.927359
1418.000000	0.927010
1417.000000	0.928326
1416.000000	0.929574
1415.000000	0.928605
1414.000000	0.927475
1413.000000	0.926964
1412.000000	0.927519
1411.000000	0.928070
1410.000000	0.926374
1409.000000	0.925440
1408.000000	0.926795
1407.000000	0.928275
1406.000000	0.927935
1405.000000	0.926692
1404.000000	0.925752
1403.000000	0.926957
1402.000000	0.925100
1401.000000	0.923712
1400.000000	0.925852
1399.000000	0.926427
1398.000000	0.926615
1397.000000	0.927981
1396.000000	0.928122
1395.000000	0.927035
1394.000000	0.928414
1393.000000	0.927026
1392.000000	0.926390
1391.000000	0.925993
1390.000000	0.925593
1389.000000	0.924381
1388.000000	0.926629
1387.000000	0.928002
1386.000000	0.928845
1385.000000	0.927589
1384.000000	0.924627
1383.000000	0.925376
1382.000000	0.926356
1381.000000	0.925482
1380.000000	0.924065
1379.000000	0.924941
1378.000000	0.926736
1377.000000	0.929773
1376.000000	0.926862
1375.000000	0.925721
1374.000000	0.926273
1373.000000	0.926570
1372.000000	0.927641
1371.000000	0.927540
1370.000000	0.926462
1369.000000	0.927563
1368.000000	0.927885
1367.000000	0.926102
1366.000000	0.925437
1365.000000	0.924128
1364.000000	0.923392
1363.000000	0.923281
1362.000000	0.924150
1361.000000	0.926327
1360.000000	0.926147
1359.000000	0.927196
1358.000000	0.925414
1357.000000	0.926162
1356.000000	0.926667
1355.000000	0.926137
1354.000000	0.924681
1353.000000	0.925205
1352.000000	0.925740
1351.000000	0.925067
1350.000000	0.926790
1349.000000	0.926798
1348.000000	0.926738
1347.000000	0.926184
1346.000000	0.925398
1345.000000	0.925142
1344.000000	0.926402
1343.000000	0.924402
1342.000000	0.924711
1341.000000	0.925411
1340.000000	0.926295
1339.000000	0.927532
1338.000000	0.926603
1337.000000	0.926329
1336.000000	0.924946
1335.000000	0.925769
1334.000000	0.925267
1333.000000	0.926632
1332.000000	0.925780
1331.000000	0.927288
1330.000000	0.926057
1329.000000	0.925907
1328.000000	0.926997
1327.000000	0.925669
1326.000000	0.924534
1325.000000	0.923322
1324.000000	0.924679
1323.000000	0.926739
1322.000000	0.925978
1321.000000	0.926431
1320.000000	0.925552
1319.000000	0.925091
1318.000000	0.924283
1317.000000	0.924261
1316.000000	0.923668
1315.000000	0.923481
1314.000000	0.924089
1313.000000	0.926528
1312.000000	0.924233
1311.000000	0.924307
1310.000000	0.925023
1309.000000	0.926969
1308.000000	0.924922
1307.000000	0.923848
1306.000000	0.924591
1305.000000	0.922470
1304.000000	0.923962
1303.000000	0.924149
1302.000000	0.923288
1301.000000	0.924012
1300.000000	0.925511
1299.000000	0.923361
1298.000000	0.923501
1297.000000	0.923334
1296.000000	0.923703
1295.000000	0.921692
1294.000000	0.923553
1293.000000	0.923270
1292.000000	0.921340
1291.000000	0.922557
1290.000000	0.923083
1289.000000	0.924507
1288.000000	0.922166
1287.000000	0.921961
1286.000000	0.922021
1285.000000	0.925449
1284.000000	0.922039
1283.000000	0.921728
1282.000000	0.923494
1281.000000	0.923162
1280.000000	0.921528
1279.000000	0.923132
1278.000000	0.921980
1277.000000	0.921286
1276.000000	0.921128
1275.000000	0.919822
1274.000000	0.922528
1273.000000	0.920291
1272.000000	0.921309
1271.000000	0.921467
1270.000000	0.923287
1269.000000	0.923044
1268.000000	0.921718
1267.000000	0.922300
1266.000000	0.920544
1265.000000	0.920712
1264.000000	0.918684
1263.000000	0.921446
1262.000000	0.921442
1261.000000	0.921469
1260.000000	0.920387
1259.000000	0.918925
1258.000000	0.918955
1257.000000	0.920594
1256.000000	0.920761
1255.000000	0.920553
1254.000000	0.919864
1253.000000	0.919453
1252.000000	0.919988
1251.000000	0.919610
1250.000000	0.919762
1249.000000	0.919141
1248.000000	0.918317
1247.000000	0.918836
1246.000000	0.918246
1245.000000	0.917592
1244.000000	0.919470
1243.000000	0.919461
1242.000000	0.918271
1241.000000	0.918960
1240.000000	0.917937
1239.000000	0.919790
1238.000000	0.919667
1237.000000	0.919950
1236.000000	0.918544
1235.000000	0.919593
1234.000000	0.915792
1233.000000	0.916856
1232.000000	0.918644
1231.000000	0.919112
1230.000000	0.918962
1229.000000	0.917519
1228.000000	0.917937
1227.000000	0.919118
1226.000000	0.919381
1225.000000	0.917923
1224.000000	0.918808
1223.000000	0.918686
1222.000000	0.918754
1221.000000	0.917934
1220.000000	0.919356
1219.000000	0.917135
1218.000000	0.916845
1217.000000	0.916199
1216.000000	0.917795
1215.000000	0.916828
1214.000000	0.916156
1213.000000	0.916869
1212.000000	0.917147
1211.000000	0.917226
1210.000000	0.916968
1209.000000	0.916730
1208.000000	0.915784
1207.000000	0.915983
1206.000000	0.916289
1205.000000	0.916954
1204.000000	0.916456
1203.000000	0.916687
1202.000000	0.915922
1201.000000	0.917470
1200.000000	0.917522
1199.000000	0.914828
1198.000000	0.912897
1197.000000	0.914911
1196.000000	0.914749
1195.000000	0.915336
1194.000000	0.916733
1193.000000	0.916028
1192.000000	0.915528
1191.000000	0.916273
1190.000000	0.915770
1189.000000	0.915360
1188.000000	0.914338
1187.000000	0.914380
1186.000000	0.914142
1185.000000	0.913991
1184.000000	0.914484
1183.000000	0.915179
1182.000000	0.914875
1181.000000	0.915510
1180.000000	0.915891
1179.000000	0.915407
1178.000000	0.915242
1177.000000	0.914954
1176.000000	0.913953
1175.000000	0.913054
1174.000000	0.913579
1173.000000	0.914206
1172.000000	0.913349
1171.000000	0.913629
1170.000000	0.914399
1169.000000	0.913264
1168.000000	0.910910
1167.000000	0.911903
1166.000000	0.912519
1165.000000	0.912083
1164.000000	0.912308
1163.000000	0.912026
1162.000000	0.912240
1161.000000	0.912443
1160.000000	0.911592
1159.000000	0.912272
1158.000000	0.912342
1157.000000	0.911382
1156.000000	0.911204
1155.000000	0.910815
1154.000000	0.910200
1153.000000	0.909524
1152.000000	0.909066
1151.000000	0.910321
1150.000000	0.911720
1149.000000	0.912268
1148.000000	0.911659
1147.000000	0.912121
1146.000000	0.911829
1145.000000	0.910909
1144.000000	0.910682
1143.000000	0.910317
1142.000000	0.911116
1141.000000	0.910601
1140.000000	0.909127
1139.000000	0.909415
1138.000000	0.909314
1137.000000	0.908863
1136.000000	0.909604
1135.000000	0.910087
1134.000000	0.909212
1133.000000	0.908261
1132.000000	0.907928
1131.000000	0.909288
1130.000000	0.908798
1129.000000	0.909841
1128.000000	0.909418
1127.000000	0.908757
1126.000000	0.910222
1125.000000	0.909786
1124.000000	0.909106
1123.000000	0.907985
1122.000000	0.908051
1121.000000	0.909117
1120.000000	0.906968
1119.000000	0.907402
1118.000000	0.909314
1117.000000	0.908953
1116.000000	0.908147
1115.000000	0.906602
1114.000000	0.905411
1113.000000	0.905236
1112.000000	0.907472
1111.000000	0.907666
1110.000000	0.908061
1109.000000	0.907682
1108.000000	0.907699
1107.000000	0.906654
1106.000000	0.907077
1105.000000	0.905669
1104.000000	0.906862
1103.000000	0.906841
1102.000000	0.906224
1101.000000	0.905153
1100.000000	0.905401
1099.000000	0.905591
1098.000000	0.906204
1097.000000	0.906676
1096.000000	0.906449
1095.000000	0.904989
1094.000000	0.904149
1093.000000	0.903142
1092.000000	0.903568
1091.000000	0.903875
1090.000000	0.904159
1089.000000	0.904642
1088.000000	0.904172
1087.000000	0.905132
1086.000000	0.905560
1085.000000	0.904767
1084.000000	0.902696
1083.000000	0.903781
1082.000000	0.904271
1081.000000	0.902189
1080.000000	0.901723
1079.000000	0.902957
1078.000000	0.900971
1077.000000	0.903735
1076.000000	0.902717
1075.000000	0.900882
1074.000000	0.901338
1073.000000	0.901188
1072.000000	0.900835
1071.000000	0.904805
1070.000000	0.900727
1069.000000	0.901410
1068.000000	0.898225
1067.000000	0.901988
1066.000000	0.902825
1065.000000	0.901904
1064.000000	0.899521
1063.000000	0.901495
1062.000000	0.899077
1061.000000	0.897676
1060.000000	0.899520
1059.000000	0.899865
1058.000000	0.900087
1057.000000	0.900367
1056.000000	0.899145
1055.000000	0.902808
1054.000000	0.898890
1053.000000	0.897701
1052.000000	0.898740
1051.000000	0.898357
1050.000000	0.899074
1049.000000	0.900009
1048.000000	0.895675
1047.000000	0.900902
1046.000000	0.898305
1045.000000	0.900241
1044.000000	0.899730
1043.000000	0.897384
1042.000000	0.896379
1041.000000	0.899696
1040.000000	0.899121
1039.000000	0.897942
1038.000000	0.896998
1037.000000	0.895027
1036.000000	0.894994
1035.000000	0.894531
1034.000000	0.897624
1033.000000	0.897046
1032.000000	0.897822
1031.000000	0.896006
1030.000000	0.897710
1029.000000	0.894377
1028.000000	0.895082
1027.000000	0.896258
1026.000000	0.896504
1025.000000	0.895262
1024.000000	0.894918
1023.000000	0.896923
1022.000000	0.893601
1021.000000	0.891996
1020.000000	0.895429
1019.000000	0.893584
1018.000000	0.891725
1017.000000	0.895383
1016.000000	0.895344
1015.000000	0.892496
1014.000000	0.892915
1013.000000	0.894184
1012.000000	0.894651
1011.000000	0.892349
1010.000000	0.890076
1009.000000	0.890823
1008.000000	0.891648
1007.000000	0.892402
1006.000000	0.889480
1005.000000	0.892017
1004.000000	0.891144
1003.000000	0.889363
1002.000000	0.890150
1001.000000	0.892914
1000.000000	0.892225
999.000000	0.891920
998.000000	0.890371
997.000000	0.889814
996.000000	0.890001
995.000000	0.891480
994.000000	0.889729
993.000000	0.892180
992.000000	0.892485
991.000000	0.892010
990.000000	0.890280
989.000000	0.889488
988.000000	0.890193
987.000000	0.888353
986.000000	0.888315
985.000000	0.886608
984.000000	0.890076
983.000000	0.888677
982.000000	0.887918
981.000000	0.885341
980.000000	0.887515
979.000000	0.887738
978.000000	0.889754
977.000000	0.887451
976.000000	0.888697
975.000000	0.886726
974.000000	0.885875
973.000000	0.884887
972.000000	0.887614
971.000000	0.887715
970.000000	0.885205
969.000000	0.884896
968.000000	0.882121
967.000000	0.884041
966.000000	0.883658
965.000000	0.883216
964.000000	0.883821
963.000000	0.884297
962.000000	0.884966
961.000000	0.882486
960.000000	0.883783
959.000000	0.880194
958.000000	0.882919
957.000000	0.879359
956.000000	0.879467
955.000000	0.880752
954.000000	0.877166
953.000000	0.879060
952.000000	0.883192
951.000000	0.881307
950.000000	0.879229
949.000000	0.882443
948.000000	0.884346
947.000000	0.881763
946.000000	0.881228
945.000000	0.882356
944.000000	0.880251
943.000000	0.880455
942.000000	0.881224
941.000000	0.882584
940.000000	0.882213
939.000000	0.880836
938.000000	0.878359
937.000000	0.879196
936.000000	0.881315
935.000000	0.881766
934.000000	0.881435
933.000000	0.878172
932.000000	0.880116
931.000000	0.880592
930.000000	0.874602
929.000000	0.871330
928.000000	0.876006
927.000000	0.878594
926.000000	0.879006
925.000000	0.876260
924.000000	0.874531
923.000000	0.874297
922.000000	0.872643
921.000000	0.873527
920.000000	0.875350
919.000000	0.874040
918.000000	0.872558
917.000000	0.873723
916.000000	0.876612
915.000000	0.875194
914.000000	0.870923
913.000000	0.871296
912.000000	0.868327
911.000000	0.865279
910.000000	0.862968
909.000000	0.866697
908.000000	0.872017
907.000000	0.870379
906.000000	0.867274
905.000000	0.877086
904.000000	0.885244
903.000000	0.870072
902.000000	0.867543
901.000000	0.876135
900.000000	0.870416
899.000000	0.862339
898.000000	0.861900
897.000000	0.858309
896.000000	0.867146
895.000000	0.865489
894.000000	0.862261
893.000000	0.865267
892.000000	0.862983
891.000000	0.869428
890.000000	0.866933
889.000000	0.871739
888.000000	0.861684
887.000000	0.868608
886.000000	0.862656
885.000000	0.862262
884.000000	0.856802
883.000000	0.873169
882.000000	0.877737
881.000000	0.876392
880.000000	0.871427
879.000000	0.850574
878.000000	0.849179
877.000000	0.846038
876.000000	0.854630
875.000000	0.840590
874.000000	0.866337
873.000000	0.871170
872.000000	0.854472
871.000000	0.860098
870.000000	0.873596
869.000000	0.858140
868.000000	0.853919
867.000000	0.838820
866.000000	0.859549
865.000000	0.881614
864.000000	0.879365
863.000000	0.858004
862.000000	0.860322
861.000000	0.876690
860.000000	0.898248
859.000000	0.904331
858.000000	0.899851
857.000000	0.898618
856.000000	0.891968
855.000000	0.882248
854.000000	0.887096
853.000000	0.885619
852.000000	0.881619
851.000000	0.878677
850.000000	0.881349
849.000000	0.888877
848.000000	0.889284
847.000000	0.885634
846.000000	0.883103
845.000000	0.881171
844.000000	0.882092
843.000000	0.881810
842.000000	0.875722
841.000000	0.876024
840.000000	0.879115
839.000000	0.874812
838.000000	0.875114
837.000000	0.877600
836.000000	0.874766
835.000000	0.872793
834.000000	0.873592
833.000000	0.872377
832.000000	0.872796
831.000000	0.872937
830.000000	0.871313
829.000000	0.869330
828.000000	0.871977
827.000000	0.871037
826.000000	0.870893
825.000000	0.871173
824.000000	0.867313
823.000000	0.871600
822.000000	0.871826
821.000000	0.867885
820.000000	0.868055
819.000000	0.867837
818.000000	0.866198
817.000000	0.865818
816.000000	0.867550
815.000000	0.865046
814.000000	0.865746
813.000000	0.864824
812.000000	0.863601
811.000000	0.864260
810.000000	0.862081
809.000000	0.864942
808.000000	0.860977
807.000000	0.863131
806.000000	0.863436
805.000000	0.863655
804.000000	0.860625
803.000000	0.861778
802.000000	0.861963
801.000000	0.858867
800.000000	0.861352
799.000000	0.859963
798.000000	0.860033
797.000000	0.858796
796.000000	0.859698
795.000000	0.858147
794.000000	0.857988
793.000000	0.857554
792.000000	0.857150
791.000000	0.858442
790.000000	0.855752
789.000000	0.855308
788.000000	0.857717
787.000000	0.856939
786.000000	0.855823
785.000000	0.856580
784.000000	0.856453
783.000000	0.855479
782.000000	0.855489
781.000000	0.855379
780.000000	0.857079
779.000000	0.853131
778.000000	0.853669
777.000000	0.853713
776.000000	0.852634
775.000000	0.854037
774.000000	0.851214
773.000000	0.851115
772.000000	0.852569
771.000000	0.851738
770.000000	0.852990
769.000000	0.852714
768.000000	0.849425
767.000000	0.850293
766.000000	0.851541
765.000000	0.851391
764.000000	0.850805
763.000000	0.851999
762.000000	0.851783
761.000000	0.850846
760.000000	0.850634
759.000000	0.851825
758.000000	0.852633
757.000000	0.850025
756.000000	0.852002
755.000000	0.851583
754.000000	0.850771
753.000000	0.851703
752.000000	0.854437
751.000000	0.855029
750.000000	0.853990
749.000000	0.855981
748.000000	0.855757
747.000000	0.857074
746.000000	0.855891
745.000000	0.856662
744.000000	0.858954
743.000000	0.858974
742.000000	0.859303
741.000000	0.860081
740.000000	0.862086
739.000000	0.862225
738.000000	0.864541
737.000000	0.864252
736.000000	0.865009
735.000000	0.864884
734.000000	0.865952
733.000000	0.867487
732.000000	0.868267
731.000000	0.868337
730.000000	0.869685
729.000000	0.869799
728.000000	0.870722
727.000000	0.871219
726.000000	0.872191
725.000000	0.870872
724.000000	0.871553
723.000000	0.872441
722.000000	0.873300
721.000000	0.874286
720.000000	0.874870
719.000000	0.874819
718.000000	0.874699
717.000000	0.875672
716.000000	0.874682
715.000000	0.874437
714.000000	0.873881
713.000000	0.873591
712.000000	0.874501
711.000000	0.873723
710.000000	0.872601
709.000000	0.871674
708.000000	0.870978
707.000000	0.870485
706.000000	0.870948
705.000000	0.868125
704.000000	0.867882
703.000000	0.866878
702.000000	0.865812
701.000000	0.864999
700.000000	0.863939
699.000000	0.862734
698.000000	0.862142
697.000000	0.860820
696.000000	0.858936
695.000000	0.858389
694.000000	0.857842
693.000000	0.855994
692.000000	0.855302
691.000000	0.855103
690.000000	0.854363
689.000000	0.853152
688.000000	0.851901
687.000000	0.851688
686.000000	0.850801
685.000000	0.850689
684.000000	0.849378
683.000000	0.848804
682.000000	0.848421
681.000000	0.847509
680.000000	0.846806
679.000000	0.846238
678.000000	0.845333
677.000000	0.844850
676.000000	0.844897
675.000000	0.844403
674.000000	0.843245
673.000000	0.842448
672.000000	0.841787
671.000000	0.841537
670.000000	0.841526
669.000000	0.840821
668.000000	0.839775
667.000000	0.839770
666.000000	0.839038
665.000000	0.838000
664.000000	0.837837
663.000000	0.838596
662.000000	0.838956
661.000000	0.838008
660.000000	0.837791
659.000000	0.837853
658.000000	0.837146
657.000000	0.837180
656.000000	0.837008
655.000000	0.836906
654.000000	0.837502
653.000000	0.837220
652.000000	0.837017
651.000000	0.837214
650.000000	0.837237
649.000000	0.837224
648.000000	0.837129
647.000000	0.836747
646.000000	0.836484
645.000000	0.836344
644.000000	0.835641
643.000000	0.835140
642.000000	0.835363
641.000000	0.835438
640.000000	0.834720
639.000000	0.834329
638.000000	0.834463
637.000000	0.833835
636.000000	0.833307
635.000000	0.832724
634.000000	0.831970
633.000000	0.831250
632.000000	0.830950
631.000000	0.830492
630.000000	0.829760
629.000000	0.829348
628.000000	0.829178
627.000000	0.828821
626.000000	0.827770
625.000000	0.827155
624.000000	0.826855
623.000000	0.826504
622.000000	0.825822
621.000000	0.825744
620.000000	0.825451
619.000000	0.824347
618.000000	0.823720
617.000000	0.823314
616.000000	0.822619
615.000000	0.822133
614.000000	0.820822
613.000000	0.820148
612.000000	0.820228
611.000000	0.819599
610.000000	0.819209
609.000000	0.818040
608.000000	0.817459
607.000000	0.816944
606.000000	0.816090
605.000000	0.815063
604.000000	0.814613
603.000000	0.813991
602.000000	0.812606
601.000000	0.811434
600.000000	0.810880
599.000000	0.809935
598.000000	0.808666
597.000000	0.807775
596.000000	0.807182
595.000000	0.806997
594.000000	0.806834
593.000000	0.806029
592.000000	0.805145
591.000000	0.804659
590.000000	0.804715
589.000000	0.804108
588.000000	0.803322
587.000000	0.803668
586.000000	0.803245
585.000000	0.802787
584.000000	0.802961
583.000000	0.803484
582.000000	0.803581
581.000000	0.804385
580.000000	0.804811
579.000000	0.805869
578.000000	0.807865
577.000000	0.809581
576.000000	0.810985
575.000000	0.812034
574.000000	0.813848
573.000000	0.815068
572.000000	0.816058
571.000000	0.817723
570.000000	0.818821
569.000000	0.819236
568.000000	0.819007
567.000000	0.819360
566.000000	0.818762
565.000000	0.818096
564.000000	0.817176
563.000000	0.816268
562.000000	0.815898
561.000000	0.815063
560.000000	0.813370
559.000000	0.812089
558.000000	0.810619
557.000000	0.808605
556.000000	0.807536
555.000000	0.806361
554.000000	0.805270
553.000000	0.803836
552.000000	0.802653
551.000000	0.801632
550.000000	0.800274
549.000000	0.798867
548.000000	0.798156
547.000000	0.797303
546.000000	0.796084
545.000000	0.795177
544.000000	0.794064
543.000000	0.793090
542.000000	0.791771
541.000000	0.790968
540.000000	0.790823
539.000000	0.789617
538.000000	0.788847
537.000000	0.788058
536.000000	0.788130
535.000000	0.787214
534.000000	0.786905
533.000000	0.786397
532.000000	0.785435
531.000000	0.785047
530.000000	0.784882
529.000000	0.783791
528.000000	0.783782
527.000000	0.783574
526.000000	0.783081
525.000000	0.782480
524.000000	0.782274
523.000000	0.781097
522.000000	0.780587
521.000000	0.780659
520.000000	0.780003
519.000000	0.779500
518.000000	0.778860
517.000000	0.778666
516.000000	0.777926
515.000000	0.777853
514.000000	0.778072
513.000000	0.777810
512.000000	0.778068
511.000000	0.778278
510.000000	0.778300
509.000000	0.778432
508.000000	0.779124
507.000000	0.779067
506.000000	0.780192
505.000000	0.779323
504.000000	0.779960
503.000000	0.780529
502.000000	0.781429
501.000000	0.781414
500.000000	0.781477
499.000000	0.780588
498.000000	0.780718
497.000000	0.780572
496.000000	0.780204
495.000000	0.780449
494.000000	0.780078
493.000000	0.779926
492.000000	0.779389
491.000000	0.779978
490.000000	0.779206
489.000000	0.779056
488.000000	0.778070
487.000000	0.778343
486.000000	0.777388
485.000000	0.777430
484.000000	0.776692
483.000000	0.776822
482.000000	0.776785
481.000000	0.775989
480.000000	0.774936
479.000000	0.774403
478.000000	0.773821
477.000000	0.772805
476.000000	0.772354
475.000000	0.771140
474.000000	0.770814
473.000000	0.770002
472.000000	0.769388
471.000000	0.768811
470.000000	0.767633
469.000000	0.767553
468.000000	0.766792
467.000000	0.765731
466.000000	0.765043
465.000000	0.764263
464.000000	0.763874
463.000000	0.763031
462.000000	0.762796
461.000000	0.762138
460.000000	0.761179
459.000000	0.761651
458.000000	0.760206
457.000000	0.759275
456.000000	0.759365
455.000000	0.758334
454.000000	0.758193
453.000000	0.757614
452.000000	0.757660
451.000000	0.756544
450.000000	0.756181
449.000000	0.755516
448.000000	0.755631
447.000000	0.754693
446.000000	0.754709
445.000000	0.754377
444.000000	0.754065
443.000000	0.753572
442.000000	0.753511
441.000000	0.752918
440.000000	0.752643
439.000000	0.752085
438.000000	0.751140
437.000000	0.750862
436.000000	0.750210
435.000000	0.749774
434.000000	0.750036
433.000000	0.749324
432.000000	0.748212
431.000000	0.747038
430.000000	0.746754
429.000000	0.746438
428.000000	0.745328
427.000000	0.745041
426.000000	0.744996
425.000000	0.744028
424.000000	0.743169
423.000000	0.743123
422.000000	0.742574
421.000000	0.741979
420.000000	0.740958
419.000000	0.740394
418.000000	0.740004
417.000000	0.739547
416.000000	0.739430
415.000000	0.738404
414.000000	0.737142
413.000000	0.736596
412.000000	0.736411
411.000000	0.736444
410.000000	0.737026
409.000000	0.737030
408.000000	0.738183
407.000000	0.739022
406.000000	0.740609
405.000000	0.743158
404.000000	0.745693
403.000000	0.749241
402.000000	0.754047
401.000000	0.758871
400.000000	0.764856
399.000000	0.771798
398.000000	0.779268
397.000000	0.788137
396.000000	0.798209
395.000000	0.810970
394.000000	0.822977
393.000000	0.835203
392.000000	0.848987
391.000000	0.863673
390.000000	0.878410
389.000000	0.893468
388.000000	0.908074
387.000000	0.922556
386.000000	0.936942
385.000000	0.950479
384.000000	0.964597
383.000000	0.976624
382.000000	0.987145
381.000000	0.998526
380.000000	1.010149
379.000000	1.021200
378.000000	1.034942
377.000000	1.046793
376.000000	1.055714
375.000000	1.065293
374.000000	1.073424
373.000000	1.079273
372.000000	1.084038
371.000000	1.090201
370.000000	1.097888
369.000000	1.103801
368.000000	1.110052
367.000000	1.114862
366.000000	1.119075
365.000000	1.124990
364.000000	1.130120
363.000000	1.135357
362.000000	1.139958
361.000000	1.144470
360.000000	1.148046
359.000000	1.152576
358.000000	1.156288
357.000000	1.158353
356.000000	1.161211
355.000000	1.164454
354.000000	1.167626
353.000000	1.168391
352.000000	1.169708
351.000000	1.172494
350.000000	1.173311
349.000000	1.174516
348.000000	1.174532
347.000000	1.176354
346.000000	1.176489
345.000000	1.176189
344.000000	1.176500
343.000000	1.177327
342.000000	1.177928
341.000000	1.178034
340.000000	1.176394
339.000000	1.175421
338.000000	1.175305
337.000000	1.173006
336.000000	1.171674
335.000000	1.171935
334.000000	1.169872
333.000000	1.171313
332.000000	1.169660
331.000000	1.166602
330.000000	1.165132
329.000000	1.162415
328.000000	1.161936
327.000000	1.161385
326.000000	1.159265
325.000000	1.157881
324.000000	1.157024
323.000000	1.154008
322.000000	1.151914
321.000000	1.152145
320.000000	1.150808
319.000000	1.155688
318.000000	1.156643
317.000000	1.152898
316.000000	1.155753
315.000000	1.155435
314.000000	1.155309
313.000000	1.152023
312.000000	1.149610
311.000000	1.150166
310.000000	1.150107
309.000000	1.147826
308.000000	1.148763
307.000000	1.152591
306.000000	1.151125
305.000000	1.152415
304.000000	1.153737
303.000000	1.153327
302.000000	1.151939
301.000000	1.154319
300.000000	1.160199
299.000000	1.159822
298.000000	1.159015
297.000000	1.161463
296.000000	1.160914
295.000000	1.163285
294.000000	1.166942
293.000000	1.166232
292.000000	1.167609
291.000000	1.167546
290.000000	1.169045
289.000000	1.171337
288.000000	1.172295
287.000000	1.176001
286.000000	1.173559
285.000000	1.174704
284.000000	1.176778
283.000000	1.176408
282.000000	1.174434
281.000000	1.176980
280.000000	1.179607
279.000000	1.179334
278.000000	1.178744
277.000000	1.178404
276.000000	1.180449
275.000000	1.179500
274.000000	1.180605
273.000000	1.182197
272.000000	1.184598
271.000000	1.185929
270.000000	1.184733
269.000000	1.185227
268.000000	1.185908
267.000000	1.184454
266.000000	1.187202
265.000000	1.188387
264.000000	1.185599
263.000000	1.191119
262.000000	1.188694
261.000000	1.188818
260.000000	1.192432
259.000000	1.192370
258.000000	1.192986
257.000000	1.193484
256.000000	1.195784
255.000000	1.196362
254.000000	1.193603
253.000000	1.197755
252.000000	1.199328
251.000000	1.199934
250.000000	1.196175
249.000000	1.200848
248.000000	1.202345
247.000000	1.201826
246.000000	1.201401
245.000000	1.201261
244.000000	1.202829
243.000000	1.202893
242.000000	1.201727
241.000000	1.202327
240.000000	1.202263
239.000000	1.202156
238.000000	1.201505
237.000000	1.201103
236.000000	1.202496
235.000000	1.200817
234.000000	1.199376
233.000000	1.198186
232.000000	1.200516
231.000000	1.197154
230.000000	1.196145
229.000000	1.196448
228.000000	1.195601
227.000000	1.195377
226.000000	1.192121
225.000000	1.189167
224.000000	1.191415
223.000000	1.187239
222.000000	1.188889
221.000000	1.184349
220.000000	1.184497
219.000000	1.181194
218.000000	1.183344
217.000000	1.178086
216.000000	1.178804
215.000000	1.177702
214.000000	1.174623
213.000000	1.170839
212.000000	1.171535
211.000000	1.170204
210.000000	1.168767
209.000000	1.169321
208.000000	1.167607
207.000000	1.169003
206.000000	1.165476
205.000000	1.156742
204.000000	1.153239
203.000000	1.155210
202.000000	1.152171
201.000000	1.147636
200.000000	1.146518
199.000000	1.140021
198.000000	1.131845
197.000000	1.126356
196.000000	1.120647
195.000000	1.113234
194.000000	1.098366
193.000000	1.072586
192.000000	1.038122
191.000000	0.992386
190.000000	0.861361
189.000000	0.647414
188.000000	0.370867
187.000000	0.083031
186.000000	0.017731
185.000000	-0.006502
184.000000	0.024847
183.000000	0.038206
182.000000	0.023334
181.000000	-0.007838
180.000000	0.004013
179.000000	0.004379
178.000000	0.001034
177.000000	-0.001512
176.000000	-0.011194
175.000000	0.009602
