PE UV       SUBTECH     SPECTRUM    ASCII       PEDS        4.00        
   -1
Sample4.Sample.Raw.asc
25/05/30
11:47:19.00
25/05/30
11:47:19.00
tom jordan
CISRO R2
175.000000
1
Lambda 1050
1050L1807051
PerkinElmer UV WinLab 6.4.0.973 / 2.02.06 Lambda 900 UV/VIS/NIR, Jan 28 2016 16:58:34

0
0
3350/servo 860.8/2
0
0
UV/VIS
1
1
1
RBeamAtt,SBeamAtt,150mm sphere / downward view, WB InGaAs Detector
0
0
0
0
Program
Program
3350/servo 860.8/2
3350/0.2 860.8/0.2
3350/0.2 860.8/0.2
0
1.00
 
 
 
0
 
860.8
319.2
860.8
Front
100
 
S:100 R:100
 
0
0
0
 
0
 
 
 
0
 
 
0
0
0
0
0
 
 
 
 
0
0


0
0
#HDR
-1
-1
#GR
nm
A
1.0
0.0
2000.000000
-1.000000
1826
8
1.207472
-0.008157
#DATA
2000.000000	0.937639
1999.000000	0.925528
1998.000000	0.928889
1997.000000	0.931399
1996.000000	0.928386
1995.000000	0.923073
1994.000000	0.914252
1993.000000	0.927831
1992.000000	0.929156
1991.000000	0.933715
1990.000000	0.929545
1989.000000	0.922813
1988.000000	0.929479
1987.000000	0.930268
1986.000000	0.925727
1985.000000	0.929857
1984.000000	0.924142
1983.000000	0.920345
1982.000000	0.928766
1981.000000	0.930949
1980.000000	0.937433
1979.000000	0.935247
1978.000000	0.942104
1977.000000	0.938521
1976.000000	0.930738
1975.000000	0.930334
1974.000000	0.936164
1973.000000	0.932955
1972.000000	0.942745
1971.000000	0.936670
1970.000000	0.934449
1969.000000	0.943384
1968.000000	0.930466
1967.000000	0.928437
1966.000000	0.936064
1965.000000	0.937564
1964.000000	0.936092
1963.000000	0.945401
1962.000000	0.937302
1961.000000	0.952739
1960.000000	0.938086
1959.000000	0.928025
1958.000000	0.929174
1957.000000	0.932656
1956.000000	0.932958
1955.000000	0.933057
1954.000000	0.939348
1953.000000	0.939321
1952.000000	0.931842
1951.000000	0.919081
1950.000000	0.940013
1949.000000	0.933485
1948.000000	0.937799
1947.000000	0.934270
1946.000000	0.929197
1945.000000	0.936188
1944.000000	0.932274
1943.000000	0.936754
1942.000000	0.930940
1941.000000	0.930151
1940.000000	0.936959
1939.000000	0.943321
1938.000000	0.942929
1937.000000	0.936784
1936.000000	0.940744
1935.000000	0.929886
1934.000000	0.939331
1933.000000	0.934205
1932.000000	0.930647
1931.000000	0.929256
1930.000000	0.922445
1929.000000	0.926485
1928.000000	0.945462
1927.000000	0.940522
1926.000000	0.943374
1925.000000	0.929734
1924.000000	0.923907
1923.000000	0.938848
1922.000000	0.935542
1921.000000	0.927566
1920.000000	0.926306
1919.000000	0.925967
1918.000000	0.944835
1917.000000	0.941088
1916.000000	0.931198
1915.000000	0.939998
1914.000000	0.926293
1913.000000	0.919186
1912.000000	0.932074
1911.000000	0.929236
1910.000000	0.921882
1909.000000	0.919858
1908.000000	0.928149
1907.000000	0.931698
1906.000000	0.930978
1905.000000	0.920443
1904.000000	0.910199
1903.000000	0.924008
1902.000000	0.928761
1901.000000	0.924789
1900.000000	0.931254
1899.000000	0.929676
1898.000000	0.926712
1897.000000	0.922458
1896.000000	0.913207
1895.000000	0.922255
1894.000000	0.921338
1893.000000	0.928118
1892.000000	0.935666
1891.000000	0.921586
1890.000000	0.918901
1889.000000	0.924002
1888.000000	0.927207
1887.000000	0.929032
1886.000000	0.933075
1885.000000	0.933873
1884.000000	0.931767
1883.000000	0.922427
1882.000000	0.915647
1881.000000	0.919243
1880.000000	0.924989
1879.000000	0.924580
1878.000000	0.928503
1877.000000	0.922988
1876.000000	0.923110
1875.000000	0.929623
1874.000000	0.923414
1873.000000	0.921530
1872.000000	0.923188
1871.000000	0.927268
1870.000000	0.927196
1869.000000	0.929168
1868.000000	0.926378
1867.000000	0.922080
1866.000000	0.921728
1865.000000	0.919682
1864.000000	0.923084
1863.000000	0.930607
1862.000000	0.924383
1861.000000	0.920581
1860.000000	0.919505
1859.000000	0.920570
1858.000000	0.927045
1857.000000	0.923426
1856.000000	0.920610
1855.000000	0.927399
1854.000000	0.921982
1853.000000	0.921640
1852.000000	0.923542
1851.000000	0.918825
1850.000000	0.918699
1849.000000	0.921327
1848.000000	0.918698
1847.000000	0.923196
1846.000000	0.928667
1845.000000	0.922333
1844.000000	0.921733
1843.000000	0.921694
1842.000000	0.917797
1841.000000	0.926468
1840.000000	0.937903
1839.000000	0.927225
1838.000000	0.931930
1837.000000	0.927931
1836.000000	0.923593
1835.000000	0.928188
1834.000000	0.923972
1833.000000	0.930250
1832.000000	0.926734
1831.000000	0.932073
1830.000000	0.929760
1829.000000	0.925156
1828.000000	0.929910
1827.000000	0.924298
1826.000000	0.930400
1825.000000	0.929322
1824.000000	0.921199
1823.000000	0.927009
1822.000000	0.935352
1821.000000	0.929540
1820.000000	0.929054
1819.000000	0.928001
1818.000000	0.927104
1817.000000	0.933476
1816.000000	0.931667
1815.000000	0.935186
1814.000000	0.934824
1813.000000	0.928390
1812.000000	0.926855
1811.000000	0.934999
1810.000000	0.938232
1809.000000	0.931198
1808.000000	0.932165
1807.000000	0.932545
1806.000000	0.933776
1805.000000	0.932050
1804.000000	0.931478
1803.000000	0.931394
1802.000000	0.936264
1801.000000	0.936112
1800.000000	0.931753
1799.000000	0.936007
1798.000000	0.935342
1797.000000	0.935930
1796.000000	0.933798
1795.000000	0.933220
1794.000000	0.932244
1793.000000	0.934381
1792.000000	0.934527
1791.000000	0.927270
1790.000000	0.937665
1789.000000	0.933697
1788.000000	0.933345
1787.000000	0.932778
1786.000000	0.937822
1785.000000	0.938167
1784.000000	0.928322
1783.000000	0.930128
1782.000000	0.930085
1781.000000	0.927218
1780.000000	0.931498
1779.000000	0.925146
1778.000000	0.928678
1777.000000	0.936966
1776.000000	0.930682
1775.000000	0.926397
1774.000000	0.928907
1773.000000	0.927784
1772.000000	0.932107
1771.000000	0.931982
1770.000000	0.932571
1769.000000	0.928946
1768.000000	0.933275
1767.000000	0.930157
1766.000000	0.924201
1765.000000	0.933743
1764.000000	0.928449
1763.000000	0.930464
1762.000000	0.932377
1761.000000	0.935164
1760.000000	0.932687
1759.000000	0.934548
1758.000000	0.930468
1757.000000	0.924681
1756.000000	0.937040
1755.000000	0.937824
1754.000000	0.928287
1753.000000	0.935657
1752.000000	0.934830
1751.000000	0.926996
1750.000000	0.930688
1749.000000	0.931044
1748.000000	0.933464
1747.000000	0.936238
1746.000000	0.935034
1745.000000	0.932007
1744.000000	0.928491
1743.000000	0.931040
1742.000000	0.927866
1741.000000	0.925387
1740.000000	0.936272
1739.000000	0.928153
1738.000000	0.928304
1737.000000	0.933927
1736.000000	0.932058
1735.000000	0.931240
1734.000000	0.935510
1733.000000	0.934774
1732.000000	0.939522
1731.000000	0.932245
1730.000000	0.926556
1729.000000	0.928542
1728.000000	0.929760
1727.000000	0.935113
1726.000000	0.929803
1725.000000	0.937384
1724.000000	0.940124
1723.000000	0.932140
1722.000000	0.935059
1721.000000	0.932603
1720.000000	0.932459
1719.000000	0.936984
1718.000000	0.933204
1717.000000	0.931617
1716.000000	0.931144
1715.000000	0.935405
1714.000000	0.929015
1713.000000	0.930288
1712.000000	0.932973
1711.000000	0.932957
1710.000000	0.933145
1709.000000	0.934278
1708.000000	0.928389
1707.000000	0.928925
1706.000000	0.935207
1705.000000	0.930037
1704.000000	0.932126
1703.000000	0.933098
1702.000000	0.933011
1701.000000	0.930543
1700.000000	0.931942
1699.000000	0.931311
1698.000000	0.930822
1697.000000	0.936090
1696.000000	0.932383
1695.000000	0.926730
1694.000000	0.932631
1693.000000	0.933559
1692.000000	0.930194
1691.000000	0.931178
1690.000000	0.932365
1689.000000	0.929451
1688.000000	0.930357
1687.000000	0.930673
1686.000000	0.932533
1685.000000	0.932316
1684.000000	0.934104
1683.000000	0.933384
1682.000000	0.933459
1681.000000	0.933988
1680.000000	0.930391
1679.000000	0.929837
1678.000000	0.930082
1677.000000	0.932738
1676.000000	0.932307
1675.000000	0.931750
1674.000000	0.932107
1673.000000	0.931352
1672.000000	0.931974
1671.000000	0.930064
1670.000000	0.930121
1669.000000	0.933359
1668.000000	0.932845
1667.000000	0.931022
1666.000000	0.931446
1665.000000	0.931674
1664.000000	0.928856
1663.000000	0.930933
1662.000000	0.932777
1661.000000	0.928819
1660.000000	0.933965
1659.000000	0.939904
1658.000000	0.935094
1657.000000	0.931474
1656.000000	0.930506
1655.000000	0.928670
1654.000000	0.933476
1653.000000	0.934440
1652.000000	0.930529
1651.000000	0.932083
1650.000000	0.937424
1649.000000	0.935223
1648.000000	0.931917
1647.000000	0.933325
1646.000000	0.934491
1645.000000	0.933113
1644.000000	0.931340
1643.000000	0.931945
1642.000000	0.930146
1641.000000	0.931421
1640.000000	0.934910
1639.000000	0.934227
1638.000000	0.935834
1637.000000	0.937765
1636.000000	0.933129
1635.000000	0.931533
1634.000000	0.933156
1633.000000	0.933225
1632.000000	0.935769
1631.000000	0.934658
1630.000000	0.933285
1629.000000	0.931917
1628.000000	0.932844
1627.000000	0.933168
1626.000000	0.930984
1625.000000	0.934186
1624.000000	0.934687
1623.000000	0.935091
1622.000000	0.935540
1621.000000	0.936996
1620.000000	0.937431
1619.000000	0.935020
1618.000000	0.935095
1617.000000	0.934544
1616.000000	0.937038
1615.000000	0.938298
1614.000000	0.936554
1613.000000	0.933197
1612.000000	0.934221
1611.000000	0.932596
1610.000000	0.933980
1609.000000	0.937702
1608.000000	0.936094
1607.000000	0.933168
1606.000000	0.936228
1605.000000	0.939689
1604.000000	0.935103
1603.000000	0.934663
1602.000000	0.935545
1601.000000	0.932203
1600.000000	0.931319
1599.000000	0.931061
1598.000000	0.933711
1597.000000	0.932301
1596.000000	0.934099
1595.000000	0.936138
1594.000000	0.936650
1593.000000	0.939973
1592.000000	0.934826
1591.000000	0.935111
1590.000000	0.934542
1589.000000	0.935657
1588.000000	0.934662
1587.000000	0.935046
1586.000000	0.939517
1585.000000	0.933125
1584.000000	0.934123
1583.000000	0.937747
1582.000000	0.936587
1581.000000	0.937376
1580.000000	0.938011
1579.000000	0.935225
1578.000000	0.934737
1577.000000	0.933952
1576.000000	0.937093
1575.000000	0.937859
1574.000000	0.936618
1573.000000	0.938283
1572.000000	0.933435
1571.000000	0.934900
1570.000000	0.932689
1569.000000	0.933592
1568.000000	0.933820
1567.000000	0.935820
1566.000000	0.934764
1565.000000	0.932896
1564.000000	0.936442
1563.000000	0.936867
1562.000000	0.932018
1561.000000	0.937655
1560.000000	0.935350
1559.000000	0.938212
1558.000000	0.934526
1557.000000	0.937448
1556.000000	0.936099
1555.000000	0.934939
1554.000000	0.938226
1553.000000	0.934828
1552.000000	0.932343
1551.000000	0.933892
1550.000000	0.936605
1549.000000	0.935076
1548.000000	0.933067
1547.000000	0.937749
1546.000000	0.938622
1545.000000	0.936014
1544.000000	0.937044
1543.000000	0.939474
1542.000000	0.933961
1541.000000	0.936594
1540.000000	0.937069
1539.000000	0.932825
1538.000000	0.934964
1537.000000	0.936826
1536.000000	0.934175
1535.000000	0.937820
1534.000000	0.935125
1533.000000	0.934971
1532.000000	0.931055
1531.000000	0.934773
1530.000000	0.936135
1529.000000	0.938865
1528.000000	0.936970
1527.000000	0.937889
1526.000000	0.936805
1525.000000	0.931906
1524.000000	0.937619
1523.000000	0.935368
1522.000000	0.933460
1521.000000	0.934912
1520.000000	0.938371
1519.000000	0.934863
1518.000000	0.933082
1517.000000	0.938227
1516.000000	0.937276
1515.000000	0.937321
1514.000000	0.936637
1513.000000	0.935181
1512.000000	0.938127
1511.000000	0.933184
1510.000000	0.934983
1509.000000	0.930702
1508.000000	0.932284
1507.000000	0.936152
1506.000000	0.933049
1505.000000	0.933931
1504.000000	0.932416
1503.000000	0.935745
1502.000000	0.933265
1501.000000	0.932369
1500.000000	0.936456
1499.000000	0.934905
1498.000000	0.933560
1497.000000	0.934232
1496.000000	0.937890
1495.000000	0.934584
1494.000000	0.934247
1493.000000	0.935149
1492.000000	0.934435
1491.000000	0.937193
1490.000000	0.937093
1489.000000	0.932893
1488.000000	0.933374
1487.000000	0.937523
1486.000000	0.936385
1485.000000	0.933698
1484.000000	0.932647
1483.000000	0.934258
1482.000000	0.931834
1481.000000	0.930583
1480.000000	0.934558
1479.000000	0.934378
1478.000000	0.934059
1477.000000	0.934581
1476.000000	0.934370
1475.000000	0.931578
1474.000000	0.932994
1473.000000	0.935924
1472.000000	0.935195
1471.000000	0.932032
1470.000000	0.931390
1469.000000	0.934675
1468.000000	0.934103
1467.000000	0.931885
1466.000000	0.934786
1465.000000	0.930924
1464.000000	0.930550
1463.000000	0.931933
1462.000000	0.931922
1461.000000	0.931116
1460.000000	0.930772
1459.000000	0.934689
1458.000000	0.931734
1457.000000	0.930764
1456.000000	0.931756
1455.000000	0.931650
1454.000000	0.929598
1453.000000	0.932124
1452.000000	0.933865
1451.000000	0.932521
1450.000000	0.934451
1449.000000	0.933508
1448.000000	0.931111
1447.000000	0.930345
1446.000000	0.929918
1445.000000	0.933787
1444.000000	0.931501
1443.000000	0.929804
1442.000000	0.931209
1441.000000	0.930426
1440.000000	0.931543
1439.000000	0.932462
1438.000000	0.932759
1437.000000	0.933234
1436.000000	0.931241
1435.000000	0.932508
1434.000000	0.932919
1433.000000	0.930563
1432.000000	0.930495
1431.000000	0.930772
1430.000000	0.930896
1429.000000	0.931162
1428.000000	0.929834
1427.000000	0.928548
1426.000000	0.927196
1425.000000	0.928457
1424.000000	0.930441
1423.000000	0.930491
1422.000000	0.930218
1421.000000	0.932561
1420.000000	0.933196
1419.000000	0.928814
1418.000000	0.929941
1417.000000	0.929590
1416.000000	0.926698
1415.000000	0.928940
1414.000000	0.929796
1413.000000	0.929260
1412.000000	0.930034
1411.000000	0.932197
1410.000000	0.930223
1409.000000	0.926949
1408.000000	0.927562
1407.000000	0.928931
1406.000000	0.928534
1405.000000	0.929875
1404.000000	0.932482
1403.000000	0.931148
1402.000000	0.930750
1401.000000	0.929928
1400.000000	0.930087
1399.000000	0.929471
1398.000000	0.928637
1397.000000	0.930985
1396.000000	0.928188
1395.000000	0.924806
1394.000000	0.926492
1393.000000	0.928328
1392.000000	0.926573
1391.000000	0.927062
1390.000000	0.930330
1389.000000	0.928887
1388.000000	0.928551
1387.000000	0.929605
1386.000000	0.927932
1385.000000	0.926772
1384.000000	0.926818
1383.000000	0.928835
1382.000000	0.926764
1381.000000	0.927009
1380.000000	0.927764
1379.000000	0.927298
1378.000000	0.927889
1377.000000	0.926176
1376.000000	0.928101
1375.000000	0.927295
1374.000000	0.928340
1373.000000	0.930151
1372.000000	0.928444
1371.000000	0.925771
1370.000000	0.927713
1369.000000	0.928728
1368.000000	0.927285
1367.000000	0.927522
1366.000000	0.927056
1365.000000	0.924543
1364.000000	0.925862
1363.000000	0.928493
1362.000000	0.929889
1361.000000	0.927499
1360.000000	0.926744
1359.000000	0.927285
1358.000000	0.925576
1357.000000	0.928017
1356.000000	0.927945
1355.000000	0.925500
1354.000000	0.927293
1353.000000	0.928736
1352.000000	0.929238
1351.000000	0.927430
1350.000000	0.925516
1349.000000	0.927283
1348.000000	0.926110
1347.000000	0.926547
1346.000000	0.927471
1345.000000	0.926861
1344.000000	0.927841
1343.000000	0.926364
1342.000000	0.926544
1341.000000	0.925043
1340.000000	0.926015
1339.000000	0.925254
1338.000000	0.923587
1337.000000	0.926189
1336.000000	0.925843
1335.000000	0.927601
1334.000000	0.927099
1333.000000	0.926439
1332.000000	0.925565
1331.000000	0.924605
1330.000000	0.927065
1329.000000	0.927042
1328.000000	0.926190
1327.000000	0.925791
1326.000000	0.924030
1325.000000	0.926126
1324.000000	0.925666
1323.000000	0.927138
1322.000000	0.924767
1321.000000	0.926520
1320.000000	0.927193
1319.000000	0.927029
1318.000000	0.925292
1317.000000	0.924471
1316.000000	0.925297
1315.000000	0.925590
1314.000000	0.926936
1313.000000	0.927979
1312.000000	0.924079
1311.000000	0.926035
1310.000000	0.926463
1309.000000	0.925537
1308.000000	0.924292
1307.000000	0.926224
1306.000000	0.925591
1305.000000	0.923962
1304.000000	0.925931
1303.000000	0.923799
1302.000000	0.922178
1301.000000	0.927645
1300.000000	0.926587
1299.000000	0.925370
1298.000000	0.925211
1297.000000	0.925031
1296.000000	0.923768
1295.000000	0.924878
1294.000000	0.924994
1293.000000	0.924118
1292.000000	0.925627
1291.000000	0.924625
1290.000000	0.922999
1289.000000	0.924050
1288.000000	0.924528
1287.000000	0.924379
1286.000000	0.922429
1285.000000	0.924767
1284.000000	0.923842
1283.000000	0.923673
1282.000000	0.923308
1281.000000	0.922837
1280.000000	0.922577
1279.000000	0.923843
1278.000000	0.923866
1277.000000	0.922231
1276.000000	0.922017
1275.000000	0.921809
1274.000000	0.920838
1273.000000	0.922959
1272.000000	0.921990
1271.000000	0.924251
1270.000000	0.920468
1269.000000	0.921005
1268.000000	0.923197
1267.000000	0.921633
1266.000000	0.922508
1265.000000	0.921432
1264.000000	0.921776
1263.000000	0.920070
1262.000000	0.922613
1261.000000	0.924601
1260.000000	0.921647
1259.000000	0.923605
1258.000000	0.921546
1257.000000	0.922335
1256.000000	0.922720
1255.000000	0.921208
1254.000000	0.922292
1253.000000	0.920396
1252.000000	0.921995
1251.000000	0.919739
1250.000000	0.921081
1249.000000	0.921183
1248.000000	0.922018
1247.000000	0.920326
1246.000000	0.921059
1245.000000	0.922444
1244.000000	0.921366
1243.000000	0.920645
1242.000000	0.919235
1241.000000	0.919319
1240.000000	0.920696
1239.000000	0.921260
1238.000000	0.921241
1237.000000	0.920669
1236.000000	0.919959
1235.000000	0.918917
1234.000000	0.918586
1233.000000	0.919880
1232.000000	0.917952
1231.000000	0.916737
1230.000000	0.920773
1229.000000	0.918714
1228.000000	0.918918
1227.000000	0.919357
1226.000000	0.919579
1225.000000	0.918577
1224.000000	0.918653
1223.000000	0.917922
1222.000000	0.916398
1221.000000	0.918616
1220.000000	0.919397
1219.000000	0.919313
1218.000000	0.919251
1217.000000	0.918688
1216.000000	0.917311
1215.000000	0.916536
1214.000000	0.919385
1213.000000	0.918833
1212.000000	0.917758
1211.000000	0.917683
1210.000000	0.917539
1209.000000	0.916958
1208.000000	0.917472
1207.000000	0.917840
1206.000000	0.916900
1205.000000	0.917653
1204.000000	0.917368
1203.000000	0.915104
1202.000000	0.916573
1201.000000	0.916535
1200.000000	0.916774
1199.000000	0.916156
1198.000000	0.916497
1197.000000	0.916006
1196.000000	0.915780
1195.000000	0.918292
1194.000000	0.916829
1193.000000	0.916574
1192.000000	0.917378
1191.000000	0.916951
1190.000000	0.916206
1189.000000	0.916492
1188.000000	0.915656
1187.000000	0.914551
1186.000000	0.914002
1185.000000	0.913991
1184.000000	0.914484
1183.000000	0.915179
1182.000000	0.914651
1181.000000	0.915308
1180.000000	0.915927
1179.000000	0.915156
1178.000000	0.914540
1177.000000	0.915288
1176.000000	0.914672
1175.000000	0.914826
1174.000000	0.915617
1173.000000	0.915354
1172.000000	0.914119
1171.000000	0.913226
1170.000000	0.913248
1169.000000	0.913885
1168.000000	0.914365
1167.000000	0.914218
1166.000000	0.914073
1165.000000	0.915834
1164.000000	0.914778
1163.000000	0.912798
1162.000000	0.913108
1161.000000	0.913005
1160.000000	0.913290
1159.000000	0.913274
1158.000000	0.913187
1157.000000	0.913127
1156.000000	0.913550
1155.000000	0.913469
1154.000000	0.912998
1153.000000	0.914346
1152.000000	0.913680
1151.000000	0.911079
1150.000000	0.910314
1149.000000	0.911303
1148.000000	0.910895
1147.000000	0.911375
1146.000000	0.913387
1145.000000	0.911226
1144.000000	0.912030
1143.000000	0.912998
1142.000000	0.910873
1141.000000	0.910458
1140.000000	0.910480
1139.000000	0.909066
1138.000000	0.907325
1137.000000	0.909869
1136.000000	0.910036
1135.000000	0.909319
1134.000000	0.909915
1133.000000	0.909363
1132.000000	0.909301
1131.000000	0.910242
1130.000000	0.909665
1129.000000	0.908531
1128.000000	0.909880
1127.000000	0.908052
1126.000000	0.906965
1125.000000	0.910173
1124.000000	0.910032
1123.000000	0.908328
1122.000000	0.908549
1121.000000	0.909530
1120.000000	0.908053
1119.000000	0.909295
1118.000000	0.910179
1117.000000	0.909331
1116.000000	0.908670
1115.000000	0.908940
1114.000000	0.907777
1113.000000	0.907538
1112.000000	0.908479
1111.000000	0.908085
1110.000000	0.908627
1109.000000	0.908368
1108.000000	0.905955
1107.000000	0.906124
1106.000000	0.907240
1105.000000	0.908032
1104.000000	0.906384
1103.000000	0.908005
1102.000000	0.906938
1101.000000	0.905430
1100.000000	0.907081
1099.000000	0.907519
1098.000000	0.905335
1097.000000	0.907192
1096.000000	0.906615
1095.000000	0.905244
1094.000000	0.905588
1093.000000	0.904211
1092.000000	0.905335
1091.000000	0.906383
1090.000000	0.906363
1089.000000	0.906049
1088.000000	0.904630
1087.000000	0.904602
1086.000000	0.904511
1085.000000	0.905944
1084.000000	0.904275
1083.000000	0.905517
1082.000000	0.905394
1081.000000	0.908018
1080.000000	0.905769
1079.000000	0.904025
1078.000000	0.907716
1077.000000	0.903790
1076.000000	0.903155
1075.000000	0.904222
1074.000000	0.903736
1073.000000	0.899725
1072.000000	0.904005
1071.000000	0.903699
1070.000000	0.900471
1069.000000	0.903243
1068.000000	0.901753
1067.000000	0.900626
1066.000000	0.900675
1065.000000	0.904769
1064.000000	0.902117
1063.000000	0.901491
1062.000000	0.902259
1061.000000	0.899221
1060.000000	0.902333
1059.000000	0.900099
1058.000000	0.902249
1057.000000	0.900714
1056.000000	0.900609
1055.000000	0.900949
1054.000000	0.899831
1053.000000	0.901743
1052.000000	0.903029
1051.000000	0.900806
1050.000000	0.902438
1049.000000	0.899021
1048.000000	0.899480
1047.000000	0.899179
1046.000000	0.901007
1045.000000	0.896069
1044.000000	0.900484
1043.000000	0.895104
1042.000000	0.895398
1041.000000	0.896217
1040.000000	0.901070
1039.000000	0.899268
1038.000000	0.897592
1037.000000	0.901504
1036.000000	0.894263
1035.000000	0.901331
1034.000000	0.900384
1033.000000	0.898679
1032.000000	0.898370
1031.000000	0.896586
1030.000000	0.895316
1029.000000	0.897385
1028.000000	0.895792
1027.000000	0.894655
1026.000000	0.895744
1025.000000	0.895058
1024.000000	0.895754
1023.000000	0.892834
1022.000000	0.892691
1021.000000	0.890855
1020.000000	0.897340
1019.000000	0.897820
1018.000000	0.892531
1017.000000	0.899454
1016.000000	0.896461
1015.000000	0.894914
1014.000000	0.894990
1013.000000	0.894881
1012.000000	0.894704
1011.000000	0.891062
1010.000000	0.895371
1009.000000	0.893456
1008.000000	0.890822
1007.000000	0.895353
1006.000000	0.896214
1005.000000	0.894885
1004.000000	0.893987
1003.000000	0.893289
1002.000000	0.889067
1001.000000	0.894065
1000.000000	0.894257
999.000000	0.890890
998.000000	0.896642
997.000000	0.891902
996.000000	0.890743
995.000000	0.894176
994.000000	0.896468
993.000000	0.888828
992.000000	0.888588
991.000000	0.889516
990.000000	0.888182
989.000000	0.890064
988.000000	0.891795
987.000000	0.887150
986.000000	0.889013
985.000000	0.886723
984.000000	0.885572
983.000000	0.888069
982.000000	0.893344
981.000000	0.889600
980.000000	0.889345
979.000000	0.888696
978.000000	0.889010
977.000000	0.892205
976.000000	0.890968
975.000000	0.890949
974.000000	0.892098
973.000000	0.888759
972.000000	0.885411
971.000000	0.888101
970.000000	0.886424
969.000000	0.883297
968.000000	0.890277
967.000000	0.889816
966.000000	0.889653
965.000000	0.888170
964.000000	0.884518
963.000000	0.886369
962.000000	0.884606
961.000000	0.885204
960.000000	0.882086
959.000000	0.886795
958.000000	0.884869
957.000000	0.884966
956.000000	0.885301
955.000000	0.885621
954.000000	0.885679
953.000000	0.880728
952.000000	0.885187
951.000000	0.884474
950.000000	0.878567
949.000000	0.883278
948.000000	0.884094
947.000000	0.882382
946.000000	0.879113
945.000000	0.882970
944.000000	0.885903
943.000000	0.885364
942.000000	0.884429
941.000000	0.886320
940.000000	0.886876
939.000000	0.879441
938.000000	0.880841
937.000000	0.881687
936.000000	0.881441
935.000000	0.876697
934.000000	0.879208
933.000000	0.879573
932.000000	0.876456
931.000000	0.877350
930.000000	0.882057
929.000000	0.880307
928.000000	0.878579
927.000000	0.884371
926.000000	0.883382
925.000000	0.883275
924.000000	0.882372
923.000000	0.878012
922.000000	0.874827
921.000000	0.879112
920.000000	0.885956
919.000000	0.878940
918.000000	0.877259
917.000000	0.874660
916.000000	0.877420
915.000000	0.875370
914.000000	0.870342
913.000000	0.880100
912.000000	0.879993
911.000000	0.879137
910.000000	0.876061
909.000000	0.879525
908.000000	0.880083
907.000000	0.873073
906.000000	0.863648
905.000000	0.869570
904.000000	0.881468
903.000000	0.874828
902.000000	0.872076
901.000000	0.865071
900.000000	0.868548
899.000000	0.870300
898.000000	0.867871
897.000000	0.872375
896.000000	0.866555
895.000000	0.866515
894.000000	0.875195
893.000000	0.868262
892.000000	0.855383
891.000000	0.856530
890.000000	0.851877
889.000000	0.859633
888.000000	0.872895
887.000000	0.882373
886.000000	0.872842
885.000000	0.862049
884.000000	0.866188
883.000000	0.866708
882.000000	0.870436
881.000000	0.871658
880.000000	0.876942
879.000000	0.885054
878.000000	0.904597
877.000000	0.876742
876.000000	0.866836
875.000000	0.869948
874.000000	0.855056
873.000000	0.861108
872.000000	0.865597
871.000000	0.862778
870.000000	0.846682
869.000000	0.871738
868.000000	0.850848
867.000000	0.857423
866.000000	0.892719
865.000000	0.887060
864.000000	0.891918
863.000000	0.868462
862.000000	0.858611
861.000000	0.873686
860.000000	0.882077
859.000000	0.893837
858.000000	0.886972
857.000000	0.892378
856.000000	0.900246
855.000000	0.888274
854.000000	0.882705
853.000000	0.877909
852.000000	0.883396
851.000000	0.892299
850.000000	0.885716
849.000000	0.881333
848.000000	0.883117
847.000000	0.878302
846.000000	0.880888
845.000000	0.882904
844.000000	0.884969
843.000000	0.883985
842.000000	0.879884
841.000000	0.875942
840.000000	0.878170
839.000000	0.877971
838.000000	0.875233
837.000000	0.875931
836.000000	0.875805
835.000000	0.876054
834.000000	0.876435
833.000000	0.873754
832.000000	0.876601
831.000000	0.874257
830.000000	0.874782
829.000000	0.873494
828.000000	0.873140
827.000000	0.870978
826.000000	0.869716
825.000000	0.869385
824.000000	0.870415
823.000000	0.871676
822.000000	0.871051
821.000000	0.870449
820.000000	0.869479
819.000000	0.868971
818.000000	0.865867
817.000000	0.865934
816.000000	0.866632
815.000000	0.868098
814.000000	0.866609
813.000000	0.866457
812.000000	0.868197
811.000000	0.867493
810.000000	0.865098
809.000000	0.863303
808.000000	0.861624
807.000000	0.863078
806.000000	0.864037
805.000000	0.863850
804.000000	0.860232
803.000000	0.863453
802.000000	0.861918
801.000000	0.860279
800.000000	0.861082
799.000000	0.860128
798.000000	0.861022
797.000000	0.859655
796.000000	0.858951
795.000000	0.860797
794.000000	0.859167
793.000000	0.859984
792.000000	0.856989
791.000000	0.857799
790.000000	0.856124
789.000000	0.857401
788.000000	0.858222
787.000000	0.857111
786.000000	0.856028
785.000000	0.855601
784.000000	0.856311
783.000000	0.853841
782.000000	0.855123
781.000000	0.853664
780.000000	0.853862
779.000000	0.854141
778.000000	0.853039
777.000000	0.853381
776.000000	0.852891
775.000000	0.851576
774.000000	0.850987
773.000000	0.851305
772.000000	0.852367
771.000000	0.853090
770.000000	0.852707
769.000000	0.851292
768.000000	0.852419
767.000000	0.851633
766.000000	0.851309
765.000000	0.851294
764.000000	0.850377
763.000000	0.850616
762.000000	0.852330
761.000000	0.852213
760.000000	0.851866
759.000000	0.851162
758.000000	0.852239
757.000000	0.852173
756.000000	0.852423
755.000000	0.852603
754.000000	0.851928
753.000000	0.853337
752.000000	0.854479
751.000000	0.854435
750.000000	0.856114
749.000000	0.856848
748.000000	0.857504
747.000000	0.857636
746.000000	0.857538
745.000000	0.857358
744.000000	0.861081
743.000000	0.861740
742.000000	0.860351
741.000000	0.862111
740.000000	0.863389
739.000000	0.863648
738.000000	0.864735
737.000000	0.864942
736.000000	0.865016
735.000000	0.866399
734.000000	0.867508
733.000000	0.868549
732.000000	0.869267
731.000000	0.870235
730.000000	0.870980
729.000000	0.870342
728.000000	0.871483
727.000000	0.872014
726.000000	0.873151
725.000000	0.873183
724.000000	0.873023
723.000000	0.873406
722.000000	0.873076
721.000000	0.874583
720.000000	0.874962
719.000000	0.875079
718.000000	0.875847
717.000000	0.875294
716.000000	0.875941
715.000000	0.875703
714.000000	0.875419
713.000000	0.874690
712.000000	0.874376
711.000000	0.874188
710.000000	0.873430
709.000000	0.872569
708.000000	0.872675
707.000000	0.871586
706.000000	0.871291
705.000000	0.870530
704.000000	0.868679
703.000000	0.867495
702.000000	0.867032
701.000000	0.865582
700.000000	0.864498
699.000000	0.864057
698.000000	0.863388
697.000000	0.861203
696.000000	0.860471
695.000000	0.859665
694.000000	0.858894
693.000000	0.857652
692.000000	0.856485
691.000000	0.856245
690.000000	0.854904
689.000000	0.853939
688.000000	0.853190
687.000000	0.852759
686.000000	0.852052
685.000000	0.851394
684.000000	0.850362
683.000000	0.849795
682.000000	0.849104
681.000000	0.848003
680.000000	0.847644
679.000000	0.846724
678.000000	0.846203
677.000000	0.845795
676.000000	0.845544
675.000000	0.844684
674.000000	0.844035
673.000000	0.843920
672.000000	0.842987
671.000000	0.842138
670.000000	0.842184
669.000000	0.841233
668.000000	0.840186
667.000000	0.839555
666.000000	0.839448
665.000000	0.839568
664.000000	0.838732
663.000000	0.838404
662.000000	0.838750
661.000000	0.838526
660.000000	0.838192
659.000000	0.838548
658.000000	0.838554
657.000000	0.838213
656.000000	0.839017
655.000000	0.839273
654.000000	0.838926
653.000000	0.838590
652.000000	0.838192
651.000000	0.837845
650.000000	0.837654
649.000000	0.837978
648.000000	0.837842
647.000000	0.837220
646.000000	0.837207
645.000000	0.836951
644.000000	0.836884
643.000000	0.837070
642.000000	0.836777
641.000000	0.835962
640.000000	0.835258
639.000000	0.835262
638.000000	0.835231
637.000000	0.835050
636.000000	0.834220
635.000000	0.834011
634.000000	0.833526
633.000000	0.832307
632.000000	0.832032
631.000000	0.831821
630.000000	0.830787
629.000000	0.830067
628.000000	0.829642
627.000000	0.829355
626.000000	0.828914
625.000000	0.828114
624.000000	0.827633
623.000000	0.827120
622.000000	0.826969
621.000000	0.826732
620.000000	0.825685
619.000000	0.824716
618.000000	0.824707
617.000000	0.824130
616.000000	0.823783
615.000000	0.823408
614.000000	0.822368
613.000000	0.822095
612.000000	0.821219
611.000000	0.820238
610.000000	0.819822
609.000000	0.819170
608.000000	0.818526
607.000000	0.817324
606.000000	0.817215
605.000000	0.816450
604.000000	0.815294
603.000000	0.814557
602.000000	0.813921
601.000000	0.812540
600.000000	0.811581
599.000000	0.810875
598.000000	0.810164
597.000000	0.809383
596.000000	0.808749
595.000000	0.808327
594.000000	0.807395
593.000000	0.806921
592.000000	0.805812
591.000000	0.805377
590.000000	0.805464
589.000000	0.804958
588.000000	0.804415
587.000000	0.804329
586.000000	0.804083
585.000000	0.804103
584.000000	0.804267
583.000000	0.804151
582.000000	0.804739
581.000000	0.805772
580.000000	0.805949
579.000000	0.807268
578.000000	0.808855
577.000000	0.809761
576.000000	0.811699
575.000000	0.813019
574.000000	0.814790
573.000000	0.816634
572.000000	0.817584
571.000000	0.818712
570.000000	0.819759
569.000000	0.820078
568.000000	0.820499
567.000000	0.820276
566.000000	0.819326
565.000000	0.819473
564.000000	0.818652
563.000000	0.817378
562.000000	0.816328
561.000000	0.815168
560.000000	0.814074
559.000000	0.812636
558.000000	0.811514
557.000000	0.809976
556.000000	0.808889
555.000000	0.806645
554.000000	0.805999
553.000000	0.804591
552.000000	0.803456
551.000000	0.802745
550.000000	0.801339
549.000000	0.799887
548.000000	0.798643
547.000000	0.798057
546.000000	0.797056
545.000000	0.795901
544.000000	0.795034
543.000000	0.793818
542.000000	0.792755
541.000000	0.792056
540.000000	0.791275
539.000000	0.790203
538.000000	0.789705
537.000000	0.788476
536.000000	0.788819
535.000000	0.787815
534.000000	0.787247
533.000000	0.786964
532.000000	0.786198
531.000000	0.786008
530.000000	0.785547
529.000000	0.784699
528.000000	0.784205
527.000000	0.784293
526.000000	0.783546
525.000000	0.783376
524.000000	0.782938
523.000000	0.782147
522.000000	0.781365
521.000000	0.781071
520.000000	0.780941
519.000000	0.780348
518.000000	0.779487
517.000000	0.779518
516.000000	0.778484
515.000000	0.779156
514.000000	0.778412
513.000000	0.778682
512.000000	0.778444
511.000000	0.779010
510.000000	0.779248
509.000000	0.779467
508.000000	0.779957
507.000000	0.779467
506.000000	0.780660
505.000000	0.780648
504.000000	0.780611
503.000000	0.780703
502.000000	0.782280
501.000000	0.782008
500.000000	0.781866
499.000000	0.781715
498.000000	0.781848
497.000000	0.782255
496.000000	0.781534
495.000000	0.781573
494.000000	0.781176
493.000000	0.781241
492.000000	0.780586
491.000000	0.780603
490.000000	0.779931
489.000000	0.779469
488.000000	0.779084
487.000000	0.778949
486.000000	0.778892
485.000000	0.778404
484.000000	0.777894
483.000000	0.777307
482.000000	0.776939
481.000000	0.776280
480.000000	0.775766
479.000000	0.775379
478.000000	0.774221
477.000000	0.773720
476.000000	0.772827
475.000000	0.772340
474.000000	0.771643
473.000000	0.770943
472.000000	0.770312
471.000000	0.769227
470.000000	0.768519
469.000000	0.768036
468.000000	0.767424
467.000000	0.766464
466.000000	0.765761
465.000000	0.765345
464.000000	0.764674
463.000000	0.763824
462.000000	0.763493
461.000000	0.762803
460.000000	0.762251
459.000000	0.761670
458.000000	0.760841
457.000000	0.760271
456.000000	0.760209
455.000000	0.759661
454.000000	0.758979
453.000000	0.758648
452.000000	0.757986
451.000000	0.757296
450.000000	0.756729
449.000000	0.756205
448.000000	0.756659
447.000000	0.755659
446.000000	0.754892
445.000000	0.754384
444.000000	0.754795
443.000000	0.754529
442.000000	0.754437
441.000000	0.754694
440.000000	0.753373
439.000000	0.752714
438.000000	0.751958
437.000000	0.752275
436.000000	0.751311
435.000000	0.750452
434.000000	0.750909
433.000000	0.750250
432.000000	0.749548
431.000000	0.748476
430.000000	0.747539
429.000000	0.747075
428.000000	0.746728
427.000000	0.745872
426.000000	0.744972
425.000000	0.744455
424.000000	0.744074
423.000000	0.743731
422.000000	0.743084
421.000000	0.742748
420.000000	0.742428
419.000000	0.741435
418.000000	0.740428
417.000000	0.740168
416.000000	0.739118
415.000000	0.738858
414.000000	0.738660
413.000000	0.738353
412.000000	0.737678
411.000000	0.737725
410.000000	0.737846
409.000000	0.737633
408.000000	0.738377
407.000000	0.740108
406.000000	0.741164
405.000000	0.743722
404.000000	0.747061
403.000000	0.750345
402.000000	0.754853
401.000000	0.759219
400.000000	0.765417
399.000000	0.772444
398.000000	0.779574
397.000000	0.788615
396.000000	0.799059
395.000000	0.811053
394.000000	0.823234
393.000000	0.836094
392.000000	0.849808
391.000000	0.864166
390.000000	0.878933
389.000000	0.893393
388.000000	0.908577
387.000000	0.923861
386.000000	0.937345
385.000000	0.951268
384.000000	0.965165
383.000000	0.977853
382.000000	0.989175
381.000000	0.999717
380.000000	1.010588
379.000000	1.023550
378.000000	1.036216
377.000000	1.046408
376.000000	1.056519
375.000000	1.063036
374.000000	1.069481
373.000000	1.078223
372.000000	1.086609
371.000000	1.092420
370.000000	1.097185
369.000000	1.103434
368.000000	1.110700
367.000000	1.116840
366.000000	1.121351
365.000000	1.125920
364.000000	1.131559
363.000000	1.135845
362.000000	1.140779
361.000000	1.144870
360.000000	1.148884
359.000000	1.152364
358.000000	1.156153
357.000000	1.158448
356.000000	1.161099
355.000000	1.164656
354.000000	1.167936
353.000000	1.170553
352.000000	1.172688
351.000000	1.174208
350.000000	1.173685
349.000000	1.173833
348.000000	1.176227
347.000000	1.178571
346.000000	1.177901
345.000000	1.177729
344.000000	1.178631
343.000000	1.179154
342.000000	1.177650
341.000000	1.176938
340.000000	1.176596
339.000000	1.174994
338.000000	1.176941
337.000000	1.175507
336.000000	1.174709
335.000000	1.172218
334.000000	1.169657
333.000000	1.169350
332.000000	1.168572
331.000000	1.166111
330.000000	1.163942
329.000000	1.164551
328.000000	1.162972
327.000000	1.160545
326.000000	1.155210
325.000000	1.157176
324.000000	1.157767
323.000000	1.156065
322.000000	1.154866
321.000000	1.152406
320.000000	1.151851
319.000000	1.152116
318.000000	1.153427
317.000000	1.154200
316.000000	1.154594
315.000000	1.152932
314.000000	1.154086
313.000000	1.150815
312.000000	1.152977
311.000000	1.154268
310.000000	1.153735
309.000000	1.150056
308.000000	1.150350
307.000000	1.149175
306.000000	1.149187
305.000000	1.153440
304.000000	1.155072
303.000000	1.155354
302.000000	1.155544
301.000000	1.155188
300.000000	1.158573
299.000000	1.157724
298.000000	1.159923
297.000000	1.162871
296.000000	1.163102
295.000000	1.167072
294.000000	1.165431
293.000000	1.166856
292.000000	1.169313
291.000000	1.170311
290.000000	1.172242
289.000000	1.174999
288.000000	1.173542
287.000000	1.174378
286.000000	1.173353
285.000000	1.174541
284.000000	1.178071
283.000000	1.177113
282.000000	1.178502
281.000000	1.179148
280.000000	1.178611
279.000000	1.177060
278.000000	1.180674
277.000000	1.179376
276.000000	1.180344
275.000000	1.181252
274.000000	1.181375
273.000000	1.183022
272.000000	1.182379
271.000000	1.184230
270.000000	1.185043
269.000000	1.189033
268.000000	1.187574
267.000000	1.186410
266.000000	1.188034
265.000000	1.188217
264.000000	1.187948
263.000000	1.188048
262.000000	1.191161
261.000000	1.189996
260.000000	1.189671
259.000000	1.193546
258.000000	1.196010
257.000000	1.191474
256.000000	1.196583
255.000000	1.198100
254.000000	1.197451
253.000000	1.199466
252.000000	1.202268
251.000000	1.199534
250.000000	1.199754
249.000000	1.199603
248.000000	1.204143
247.000000	1.202554
246.000000	1.204226
245.000000	1.203929
244.000000	1.204393
243.000000	1.204277
242.000000	1.207472
241.000000	1.206102
240.000000	1.203032
239.000000	1.204325
238.000000	1.203319
237.000000	1.203062
236.000000	1.202837
235.000000	1.204516
234.000000	1.202592
233.000000	1.203410
232.000000	1.198683
231.000000	1.199408
230.000000	1.197591
229.000000	1.195891
228.000000	1.195731
227.000000	1.193850
226.000000	1.192936
225.000000	1.194051
224.000000	1.190474
223.000000	1.185181
222.000000	1.187927
221.000000	1.186554
220.000000	1.187424
219.000000	1.187139
218.000000	1.182559
217.000000	1.178934
216.000000	1.178088
215.000000	1.176392
214.000000	1.177006
213.000000	1.177632
212.000000	1.176063
211.000000	1.172464
210.000000	1.173297
209.000000	1.171204
208.000000	1.169530
207.000000	1.167388
206.000000	1.166573
205.000000	1.164550
204.000000	1.159939
203.000000	1.158943
202.000000	1.157964
201.000000	1.150272
200.000000	1.150309
199.000000	1.142194
198.000000	1.135450
197.000000	1.132664
196.000000	1.121778
195.000000	1.112532
194.000000	1.107945
193.000000	1.095521
192.000000	1.077998
191.000000	1.044081
190.000000	0.941138
189.000000	0.762951
188.000000	0.494917
187.000000	0.185513
186.000000	0.059289
185.000000	0.009504
184.000000	0.018360
183.000000	0.020757
182.000000	0.010286
181.000000	0.001147
180.000000	0.021653
179.000000	-0.003046
178.000000	-0.003290
177.000000	-0.008157
176.000000	-0.005325
175.000000	0.028290
