PE UV       SUBTECH     SPECTRUM    ASCII       PEDS        4.00        
   -1
01.Sample.Raw.asc
24/04/18
15:35:17.00
24/04/18
15:35:17.00
Stefan Simis
small_source_unknown_2sidesgrey
175.000000
1
Lambda 1050
1050L1807051
PerkinElmer UV WinLab 6.4.0.973 / 2.02.06 Lambda 900 UV/VIS/NIR, Jan 28 2016 16:58:34

0
0
3350/servo 860.8/2
0
0
UV/VIS
1
1
1
RBeamAtt,SBeamAtt,150mm sphere / downward view, WB InGaAs Detector
0
0
0
0
Program
Program
3350/servo 860.8/2
3350/0.2 860.8/0.2
3350/0.2 860.8/0.2
0
1.00
 
 
 
0
 
860.8
319.2
860.8
Front
100
 
S:100 R:100
 
0
0
0
 
0
 
 
 
0
 
 
0
0
0
0
0
 
 
 
 
0
0


0
0
#HDR
-1
-1
#GR
nm
A
1.0
0.0
3300.000000
-1.000000
3126
8
10.000000
-4.076315
#DATA
3300.000000	-0.121853
3299.000000	0.002130
3298.000000	0.070962
3297.000000	-1.420079
3296.000000	-2.580029
3295.000000	0.110117
3294.000000	-0.336076
3293.000000	0.167018
3292.000000	1.060670
3291.000000	10.000000
3290.000000	0.271723
3289.000000	0.008165
3288.000000	0.669776
3287.000000	0.115279
3286.000000	-0.006260
3285.000000	0.132050
3284.000000	0.426250
3283.000000	-0.160345
3282.000000	0.164728
3281.000000	0.861405
3280.000000	0.069582
3279.000000	0.145813
3278.000000	0.249484
3277.000000	0.300880
3276.000000	0.271050
3275.000000	0.100994
3274.000000	0.057031
3273.000000	0.678732
3272.000000	1.580181
3271.000000	-0.114100
3270.000000	-0.335104
3269.000000	-0.115537
3268.000000	10.000000
3267.000000	10.000000
3266.000000	0.585749
3265.000000	0.114723
3264.000000	0.100009
3263.000000	0.307293
3262.000000	-1.398248
3261.000000	-2.703685
3260.000000	10.000000
3259.000000	0.513448
3258.000000	-0.159435
3257.000000	-0.208673
3256.000000	-0.402732
3255.000000	10.000000
3254.000000	0.024249
3253.000000	-0.096850
3252.000000	-0.392843
3251.000000	-2.915130
3250.000000	-3.828610
3249.000000	-3.677641
3248.000000	-2.862531
3247.000000	-3.353990
3246.000000	-0.422390
3245.000000	-1.268081
3244.000000	-0.143795
3243.000000	-0.072626
3242.000000	-0.265354
3241.000000	0.590133
3240.000000	0.425034
3239.000000	-0.482663
3238.000000	0.009973
3237.000000	-1.444245
3236.000000	0.245718
3235.000000	10.000000
3234.000000	10.000000
3233.000000	0.153536
3232.000000	-0.028863
3231.000000	-0.166005
3230.000000	-0.218503
3229.000000	0.053121
3228.000000	0.173480
3227.000000	0.498182
3226.000000	0.090635
3225.000000	-0.088974
3224.000000	-0.256353
3223.000000	-0.211269
3222.000000	-0.172872
3221.000000	0.331667
3220.000000	0.160024
3219.000000	-0.055470
3218.000000	0.205921
3217.000000	0.236037
3216.000000	0.067557
3215.000000	0.242768
3214.000000	-0.283193
3213.000000	0.053936
3212.000000	0.291733
3211.000000	0.342308
3210.000000	0.200218
3209.000000	-0.535450
3208.000000	0.424145
3207.000000	-0.335178
3206.000000	0.036625
3205.000000	-0.346598
3204.000000	-0.652950
3203.000000	0.154962
3202.000000	0.323962
3201.000000	-0.876365
3200.000000	0.085920
3199.000000	0.016875
3198.000000	-0.456451
3197.000000	0.021521
3196.000000	0.806689
3195.000000	10.000000
3194.000000	10.000000
3193.000000	-0.530087
3192.000000	-0.572417
3191.000000	0.095830
3190.000000	-0.164544
3189.000000	-0.164533
3188.000000	-0.448292
3187.000000	-0.388876
3186.000000	-0.014804
3185.000000	-0.371624
3184.000000	-0.330373
3183.000000	-0.183599
3182.000000	-0.287191
3181.000000	0.043849
3180.000000	0.096088
3179.000000	0.068754
3178.000000	0.559409
3177.000000	0.108121
3176.000000	-0.187377
3175.000000	0.040180
3174.000000	0.261198
3173.000000	-0.081794
3172.000000	0.334552
3171.000000	0.512026
3170.000000	-0.112999
3169.000000	0.101545
3168.000000	-0.395348
3167.000000	0.018732
3166.000000	0.315452
3165.000000	10.000000
3164.000000	1.951481
3163.000000	0.067971
3162.000000	-0.859862
3161.000000	-0.547103
3160.000000	-1.966937
3159.000000	-2.025783
3158.000000	0.504576
3157.000000	0.176145
3156.000000	0.098953
3155.000000	-0.198545
3154.000000	-0.353373
3153.000000	-1.042393
3152.000000	0.117016
3151.000000	-0.238539
3150.000000	-0.048434
3149.000000	-0.255772
3148.000000	-0.231458
3147.000000	-0.903939
3146.000000	-0.333091
3145.000000	0.082491
3144.000000	-0.464827
3143.000000	-3.209773
3142.000000	-0.561047
3141.000000	-0.683970
3140.000000	-0.391723
3139.000000	-1.360467
3138.000000	0.293434
3137.000000	-0.216669
3136.000000	0.040436
3135.000000	0.036163
3134.000000	-0.235719
3133.000000	-0.133051
3132.000000	-0.471783
3131.000000	0.232044
3130.000000	-0.095038
3129.000000	-0.098811
3128.000000	1.085507
3127.000000	0.149729
3126.000000	0.110132
3125.000000	-0.169497
3124.000000	0.120499
3123.000000	-0.050301
3122.000000	0.174807
3121.000000	10.000000
3120.000000	-0.318620
3119.000000	10.000000
3118.000000	-0.126240
3117.000000	-0.690974
3116.000000	10.000000
3115.000000	0.819344
3114.000000	0.445355
3113.000000	0.280646
3112.000000	-0.048043
3111.000000	10.000000
3110.000000	10.000000
3109.000000	0.748182
3108.000000	-0.235821
3107.000000	10.000000
3106.000000	0.461238
3105.000000	-2.030595
3104.000000	-0.104532
3103.000000	1.484861
3102.000000	0.384608
3101.000000	-4.076315
3100.000000	0.281439
3099.000000	0.168545
3098.000000	10.000000
3097.000000	0.326740
3096.000000	0.077365
3095.000000	-0.151967
3094.000000	0.608108
3093.000000	0.332654
3092.000000	-0.600313
3091.000000	0.964162
3090.000000	-2.746722
3089.000000	-1.805258
3088.000000	10.000000
3087.000000	0.137045
3086.000000	0.455945
3085.000000	0.101993
3084.000000	-0.622955
3083.000000	0.346196
3082.000000	0.126355
3081.000000	-0.281978
3080.000000	10.000000
3079.000000	0.070654
3078.000000	4.468955
3077.000000	3.137195
3076.000000	0.104627
3075.000000	0.716177
3074.000000	-0.533546
3073.000000	10.000000
3072.000000	1.005758
3071.000000	0.263040
3070.000000	0.291781
3069.000000	-0.672430
3068.000000	-3.085104
3067.000000	-1.329186
3066.000000	10.000000
3065.000000	0.094036
3064.000000	10.000000
3063.000000	-0.025372
3062.000000	-0.394101
3061.000000	0.579789
3060.000000	-0.208923
3059.000000	10.000000
3058.000000	10.000000
3057.000000	10.000000
3056.000000	0.182035
3055.000000	0.022785
3054.000000	-0.376355
3053.000000	10.000000
3052.000000	10.000000
3051.000000	-0.719505
3050.000000	0.029450
3049.000000	0.051913
3048.000000	-0.061208
3047.000000	-0.338516
3046.000000	-0.101753
3045.000000	0.029723
3044.000000	0.138604
3043.000000	-1.650815
3042.000000	10.000000
3041.000000	0.650412
3040.000000	-0.185003
3039.000000	-0.622828
3038.000000	10.000000
3037.000000	10.000000
3036.000000	10.000000
3035.000000	-0.537892
3034.000000	10.000000
3033.000000	0.262447
3032.000000	0.149213
3031.000000	10.000000
3030.000000	-0.109260
3029.000000	0.099301
3028.000000	10.000000
3027.000000	10.000000
3026.000000	10.000000
3025.000000	-0.395544
3024.000000	-0.647285
3023.000000	-0.209789
3022.000000	-0.028448
3021.000000	10.000000
3020.000000	0.205444
3019.000000	-0.111045
3018.000000	0.644851
3017.000000	-0.146803
3016.000000	0.017646
3015.000000	0.140021
3014.000000	0.630099
3013.000000	10.000000
3012.000000	0.621462
3011.000000	-2.820545
3010.000000	-3.696638
3009.000000	0.185876
3008.000000	0.106383
3007.000000	0.143796
3006.000000	0.280421
3005.000000	-0.690504
3004.000000	0.115088
3003.000000	10.000000
3002.000000	10.000000
3001.000000	10.000000
3000.000000	-0.019352
2999.000000	0.573344
2998.000000	-0.134505
2997.000000	-0.062442
2996.000000	-0.113643
2995.000000	0.221592
2994.000000	-0.444056
2993.000000	0.688875
2992.000000	0.665335
2991.000000	3.045275
2990.000000	1.109881
2989.000000	0.341717
2988.000000	0.323900
2987.000000	-1.599462
2986.000000	3.765911
2985.000000	3.890428
2984.000000	0.273265
2983.000000	-0.308257
2982.000000	0.209957
2981.000000	-0.138236
2980.000000	-0.398106
2979.000000	10.000000
2978.000000	4.374250
2977.000000	10.000000
2976.000000	0.034526
2975.000000	0.164519
2974.000000	-0.096487
2973.000000	-0.199000
2972.000000	-0.136036
2971.000000	-0.062108
2970.000000	0.187360
2969.000000	0.716432
2968.000000	-2.983923
2967.000000	-3.161051
2966.000000	0.155407
2965.000000	-0.127730
2964.000000	0.095486
2963.000000	-0.703803
2962.000000	0.228359
2961.000000	0.168838
2960.000000	0.299610
2959.000000	-0.159745
2958.000000	-0.755472
2957.000000	10.000000
2956.000000	0.764957
2955.000000	0.489927
2954.000000	10.000000
2953.000000	10.000000
2952.000000	10.000000
2951.000000	-0.793137
2950.000000	3.255353
2949.000000	2.912686
2948.000000	-0.475056
2947.000000	0.311297
2946.000000	0.333340
2945.000000	0.046386
2944.000000	-0.388689
2943.000000	-1.126688
2942.000000	0.103466
2941.000000	0.625668
2940.000000	0.775348
2939.000000	-0.389795
2938.000000	-1.084540
2937.000000	-0.616145
2936.000000	-1.055585
2935.000000	-0.009611
2934.000000	0.210275
2933.000000	-0.035191
2932.000000	-0.182405
2931.000000	-0.124311
2930.000000	-0.185135
2929.000000	0.136562
2928.000000	10.000000
2927.000000	10.000000
2926.000000	-0.400134
2925.000000	-0.230010
2924.000000	3.870993
2923.000000	3.466558
2922.000000	-0.018089
2921.000000	-0.209261
2920.000000	0.520304
2919.000000	0.512870
2918.000000	0.509672
2917.000000	-0.656472
2916.000000	0.264466
2915.000000	-0.186166
2914.000000	-2.066365
2913.000000	-2.098373
2912.000000	0.271460
2911.000000	10.000000
2910.000000	10.000000
2909.000000	-0.461534
2908.000000	0.852642
2907.000000	10.000000
2906.000000	0.727908
2905.000000	0.580882
2904.000000	-0.187613
2903.000000	-0.608767
2902.000000	-0.285146
2901.000000	0.192783
2900.000000	-0.058444
2899.000000	0.044444
2898.000000	10.000000
2897.000000	0.098367
2896.000000	-0.085507
2895.000000	10.000000
2894.000000	10.000000
2893.000000	-0.028360
2892.000000	0.381838
2891.000000	0.349769
2890.000000	1.060741
2889.000000	10.000000
2888.000000	-0.743468
2887.000000	-0.244505
2886.000000	-0.173594
2885.000000	-0.231309
2884.000000	4.212581
2883.000000	3.275816
2882.000000	-0.392352
2881.000000	0.220093
2880.000000	1.557019
2879.000000	0.738212
2878.000000	0.248886
2877.000000	-0.289906
2876.000000	-0.181550
2875.000000	0.042736
2874.000000	10.000000
2873.000000	1.042455
2872.000000	10.000000
2871.000000	0.177972
2870.000000	0.863200
2869.000000	-0.015408
2868.000000	-0.272477
2867.000000	-0.120982
2866.000000	-1.095019
2865.000000	-0.063545
2864.000000	0.189891
2863.000000	0.058252
2862.000000	-0.218573
2861.000000	-0.034411
2860.000000	10.000000
2859.000000	0.554004
2858.000000	-0.207544
2857.000000	0.432656
2856.000000	-0.587215
2855.000000	0.035476
2854.000000	4.373471
2853.000000	3.302769
2852.000000	0.105248
2851.000000	0.569441
2850.000000	10.000000
2849.000000	0.020193
2848.000000	10.000000
2847.000000	0.291817
2846.000000	-0.094585
2845.000000	-1.524801
2844.000000	0.296353
2843.000000	-0.188359
2842.000000	10.000000
2841.000000	0.054258
2840.000000	0.854316
2839.000000	-0.269288
2838.000000	0.441337
2837.000000	0.287479
2836.000000	-0.281832
2835.000000	10.000000
2834.000000	1.003761
2833.000000	-0.961888
2832.000000	-0.821111
2831.000000	0.157708
2830.000000	-1.668811
2829.000000	1.527990
2828.000000	0.311669
2827.000000	0.473374
2826.000000	-0.295067
2825.000000	0.088855
2824.000000	0.241444
2823.000000	10.000000
2822.000000	10.000000
2821.000000	4.779459
2820.000000	0.397305
2819.000000	0.569813
2818.000000	-0.001095
2817.000000	-0.057917
2816.000000	1.107354
2815.000000	-0.167250
2814.000000	-3.637157
2813.000000	2.738255
2812.000000	10.000000
2811.000000	0.168629
2810.000000	-0.962114
2809.000000	0.172456
2808.000000	-2.791999
2807.000000	-3.524503
2806.000000	0.498330
2805.000000	10.000000
2804.000000	0.068940
2803.000000	-0.038311
2802.000000	-0.177806
2801.000000	0.118760
2800.000000	-0.037828
2799.000000	10.000000
2798.000000	2.845689
2797.000000	4.956313
2796.000000	0.105554
2795.000000	-0.072209
2794.000000	10.000000
2793.000000	10.000000
2792.000000	10.000000
2791.000000	0.162201
2790.000000	-0.081583
2789.000000	-0.049877
2788.000000	0.146112
2787.000000	0.158252
2786.000000	0.209714
2785.000000	-0.144471
2784.000000	0.432813
2783.000000	10.000000
2782.000000	-0.883478
2781.000000	0.080195
2780.000000	2.971836
2779.000000	10.000000
2778.000000	10.000000
2777.000000	0.003716
2776.000000	0.591406
2775.000000	10.000000
2774.000000	10.000000
2773.000000	0.829088
2772.000000	0.628589
2771.000000	0.117464
2770.000000	-0.188390
2769.000000	0.119272
2768.000000	-3.064545
2767.000000	-3.604862
2766.000000	0.128511
2765.000000	0.116084
2764.000000	0.619686
2763.000000	0.000037
2762.000000	-0.021095
2761.000000	-0.041173
2760.000000	0.051658
2759.000000	-0.060363
2758.000000	-0.032897
2757.000000	0.160967
2756.000000	1.086435
2755.000000	10.000000
2754.000000	0.948199
2753.000000	0.384222
2752.000000	0.399206
2751.000000	0.374727
2750.000000	0.420842
2749.000000	10.000000
2748.000000	0.185109
2747.000000	-1.057996
2746.000000	-0.874705
2745.000000	-0.030978
2744.000000	-0.095314
2743.000000	-0.326980
2742.000000	-0.219893
2741.000000	-0.824342
2740.000000	-0.370756
2739.000000	-0.540475
2738.000000	-0.612352
2737.000000	0.582245
2736.000000	10.000000
2735.000000	10.000000
2734.000000	10.000000
2733.000000	10.000000
2732.000000	10.000000
2731.000000	-2.591060
2730.000000	-0.041951
2729.000000	-0.257192
2728.000000	-0.020258
2727.000000	0.521475
2726.000000	10.000000
2725.000000	10.000000
2724.000000	-0.682715
2723.000000	0.156201
2722.000000	-0.343572
2721.000000	-0.248156
2720.000000	0.296862
2719.000000	1.019592
2718.000000	1.068908
2717.000000	0.409742
2716.000000	0.239202
2715.000000	-0.463088
2714.000000	-0.100065
2713.000000	0.129488
2712.000000	0.485062
2711.000000	1.173656
2710.000000	10.000000
2709.000000	0.797712
2708.000000	0.634815
2707.000000	-3.261395
2706.000000	-2.981136
2705.000000	-0.134293
2704.000000	-0.391447
2703.000000	-0.141803
2702.000000	0.553328
2701.000000	0.633579
2700.000000	0.078495
2699.000000	-0.042001
2698.000000	10.000000
2697.000000	-2.975081
2696.000000	-2.945268
2695.000000	3.134936
2694.000000	3.177564
2693.000000	0.094719
2692.000000	0.157893
2691.000000	0.016654
2690.000000	-2.999565
2689.000000	-2.917671
2688.000000	10.000000
2687.000000	2.621181
2686.000000	0.189405
2685.000000	0.267124
2684.000000	0.153819
2683.000000	0.383779
2682.000000	0.867695
2681.000000	10.000000
2680.000000	10.000000
2679.000000	10.000000
2678.000000	10.000000
2677.000000	0.749958
2676.000000	-0.056445
2675.000000	0.248883
2674.000000	3.350665
2673.000000	0.651105
2672.000000	-1.606671
2671.000000	-0.210375
2670.000000	10.000000
2669.000000	10.000000
2668.000000	10.000000
2667.000000	-0.143502
2666.000000	-0.074848
2665.000000	-0.028734
2664.000000	0.139630
2663.000000	1.132242
2662.000000	0.521052
2661.000000	-0.584722
2660.000000	0.120957
2659.000000	0.617430
2658.000000	3.706441
2657.000000	3.622895
2656.000000	3.708888
2655.000000	0.198893
2654.000000	-0.164940
2653.000000	10.000000
2652.000000	10.000000
2651.000000	-0.388552
2650.000000	0.261144
2649.000000	0.757133
2648.000000	1.030127
2647.000000	0.185271
2646.000000	-0.049660
2645.000000	0.302929
2644.000000	0.096459
2643.000000	10.000000
2642.000000	10.000000
2641.000000	10.000000
2640.000000	-0.056094
2639.000000	0.284131
2638.000000	0.226415
2637.000000	0.216875
2636.000000	1.021507
2635.000000	10.000000
2634.000000	0.394647
2633.000000	0.509311
2632.000000	0.503246
2631.000000	1.080284
2630.000000	10.000000
2629.000000	-0.201913
2628.000000	-0.079152
2627.000000	0.188363
2626.000000	-0.708483
2625.000000	-0.452033
2624.000000	-0.044675
2623.000000	1.164696
2622.000000	0.738958
2621.000000	-0.969555
2620.000000	-0.000066
2619.000000	0.071671
2618.000000	-0.117990
2617.000000	4.259417
2616.000000	3.116430
2615.000000	0.187064
2614.000000	0.068218
2613.000000	-0.105405
2612.000000	-0.053952
2611.000000	0.022657
2610.000000	1.070121
2609.000000	0.593722
2608.000000	-2.740964
2607.000000	-1.864976
2606.000000	-0.258082
2605.000000	10.000000
2604.000000	1.088960
2603.000000	-0.052651
2602.000000	1.049318
2601.000000	10.000000
2600.000000	0.578799
2599.000000	10.000000
2598.000000	0.109814
2597.000000	3.809714
2596.000000	2.873300
2595.000000	-0.546931
2594.000000	0.524689
2593.000000	0.481260
2592.000000	-0.348335
2591.000000	0.703452
2590.000000	-0.460510
2589.000000	-0.597369
2588.000000	-0.433920
2587.000000	10.000000
2586.000000	0.439865
2585.000000	0.368373
2584.000000	0.039011
2583.000000	-2.910225
2582.000000	-1.725792
2581.000000	10.000000
2580.000000	4.431798
2579.000000	-0.154250
2578.000000	0.694288
2577.000000	0.226255
2576.000000	1.988176
2575.000000	2.221480
2574.000000	10.000000
2573.000000	10.000000
2572.000000	-0.000106
2571.000000	-0.000160
2570.000000	0.032275
2569.000000	10.000000
2568.000000	-0.177045
2567.000000	0.805502
2566.000000	0.378916
2565.000000	-2.127936
2564.000000	-0.815696
2563.000000	1.299677
2562.000000	0.120602
2561.000000	0.024692
2560.000000	-2.461713
2559.000000	-3.513762
2558.000000	0.040370
2557.000000	10.000000
2556.000000	10.000000
2555.000000	10.000000
2554.000000	10.000000
2553.000000	-0.036165
2552.000000	10.000000
2551.000000	10.000000
2550.000000	-2.177597
2549.000000	-3.184270
2548.000000	-3.491759
2547.000000	-0.630974
2546.000000	10.000000
2545.000000	2.769797
2544.000000	0.400589
2543.000000	0.671506
2542.000000	10.000000
2541.000000	0.297298
2540.000000	10.000000
2539.000000	10.000000
2538.000000	1.779761
2537.000000	-0.403250
2536.000000	0.087649
2535.000000	10.000000
2534.000000	10.000000
2533.000000	10.000000
2532.000000	10.000000
2531.000000	-0.149621
2530.000000	1.033528
2529.000000	10.000000
2528.000000	10.000000
2527.000000	10.000000
2526.000000	0.630467
2525.000000	10.000000
2524.000000	10.000000
2523.000000	10.000000
2522.000000	10.000000
2521.000000	10.000000
2520.000000	1.193977
2519.000000	10.000000
2518.000000	10.000000
2517.000000	1.494164
2516.000000	0.778904
2515.000000	1.268954
2514.000000	1.165723
2513.000000	1.211307
2512.000000	1.245447
2511.000000	10.000000
2510.000000	10.000000
2509.000000	10.000000
2508.000000	10.000000
2507.000000	1.178484
2506.000000	1.675866
2505.000000	10.000000
2504.000000	10.000000
2503.000000	2.603061
2502.000000	10.000000
2501.000000	10.000000
2500.000000	10.000000
2499.000000	10.000000
2498.000000	10.000000
2497.000000	0.910177
2496.000000	10.000000
2495.000000	10.000000
2494.000000	0.710395
2493.000000	1.134954
2492.000000	1.572024
2491.000000	10.000000
2490.000000	1.930471
2489.000000	1.125207
2488.000000	1.166091
2487.000000	1.239341
2486.000000	1.206581
2485.000000	2.077139
2484.000000	1.355840
2483.000000	10.000000
2482.000000	10.000000
2481.000000	1.647809
2480.000000	1.246708
2479.000000	1.099966
2478.000000	1.147245
2477.000000	1.336854
2476.000000	2.146757
2475.000000	1.085876
2474.000000	0.929942
2473.000000	1.183915
2472.000000	1.935157
2471.000000	1.362586
2470.000000	1.210107
2469.000000	1.048709
2468.000000	0.910045
2467.000000	1.085046
2466.000000	1.276461
2465.000000	1.308141
2464.000000	1.163561
2463.000000	1.260397
2462.000000	1.434999
2461.000000	1.209323
2460.000000	1.134465
2459.000000	1.030011
2458.000000	0.930176
2457.000000	0.931763
2456.000000	0.983645
2455.000000	1.059970
2454.000000	1.168862
2453.000000	1.138363
2452.000000	1.183575
2451.000000	1.190237
2450.000000	1.057527
2449.000000	1.134588
2448.000000	1.133706
2447.000000	1.008131
2446.000000	1.080151
2445.000000	1.101799
2444.000000	1.239492
2443.000000	1.217944
2442.000000	1.020174
2441.000000	1.051688
2440.000000	1.009092
2439.000000	1.121228
2438.000000	1.037987
2437.000000	1.039602
2436.000000	1.056800
2435.000000	0.970949
2434.000000	0.988228
2433.000000	1.092470
2432.000000	1.125736
2431.000000	0.966467
2430.000000	0.970634
2429.000000	1.085187
2428.000000	1.103646
2427.000000	1.102719
2426.000000	1.078526
2425.000000	1.069312
2424.000000	1.039820
2423.000000	1.027269
2422.000000	1.009699
2421.000000	0.979559
2420.000000	0.998175
2419.000000	0.976234
2418.000000	0.995870
2417.000000	0.994841
2416.000000	0.958573
2415.000000	1.104790
2414.000000	1.047370
2413.000000	1.009350
2412.000000	0.985369
2411.000000	0.958581
2410.000000	0.959342
2409.000000	0.960863
2408.000000	0.973727
2407.000000	1.048424
2406.000000	1.084118
2405.000000	1.074881
2404.000000	1.047656
2403.000000	0.961697
2402.000000	0.993566
2401.000000	1.013818
2400.000000	1.000645
2399.000000	1.144679
2398.000000	0.986717
2397.000000	1.001571
2396.000000	0.998306
2395.000000	0.984524
2394.000000	1.114797
2393.000000	1.023054
2392.000000	0.995885
2391.000000	0.992012
2390.000000	1.029964
2389.000000	1.009990
2388.000000	1.056164
2387.000000	0.947516
2386.000000	1.010951
2385.000000	1.007195
2384.000000	1.104269
2383.000000	1.129473
2382.000000	1.010032
2381.000000	1.093564
2380.000000	1.007643
2379.000000	1.013502
2378.000000	1.154803
2377.000000	1.067293
2376.000000	1.011431
2375.000000	1.185658
2374.000000	1.158421
2373.000000	1.097399
2372.000000	1.077718
2371.000000	0.962271
2370.000000	1.077313
2369.000000	0.985091
2368.000000	1.033510
2367.000000	1.106859
2366.000000	1.032854
2365.000000	1.048636
2364.000000	1.092259
2363.000000	1.014469
2362.000000	1.035852
2361.000000	1.057259
2360.000000	0.986517
2359.000000	1.140873
2358.000000	1.004194
2357.000000	1.066391
2356.000000	1.017090
2355.000000	1.054200
2354.000000	1.056477
2353.000000	1.046354
2352.000000	1.014373
2351.000000	0.998901
2350.000000	1.047352
2349.000000	1.059359
2348.000000	0.955616
2347.000000	0.927963
2346.000000	1.003699
2345.000000	1.016203
2344.000000	1.014928
2343.000000	1.026981
2342.000000	0.995796
2341.000000	1.051089
2340.000000	1.010819
2339.000000	1.025436
2338.000000	1.098276
2337.000000	1.047131
2336.000000	1.032207
2335.000000	1.020978
2334.000000	1.039321
2333.000000	1.040408
2332.000000	1.000491
2331.000000	1.026235
2330.000000	1.049393
2329.000000	0.976126
2328.000000	1.040445
2327.000000	1.076995
2326.000000	1.027989
2325.000000	1.079097
2324.000000	0.970483
2323.000000	1.010497
2322.000000	1.064327
2321.000000	1.001644
2320.000000	0.936206
2319.000000	1.016587
2318.000000	1.023482
2317.000000	1.053989
2316.000000	0.986924
2315.000000	1.034188
2314.000000	1.077743
2313.000000	0.998968
2312.000000	1.064227
2311.000000	1.051667
2310.000000	1.073921
2309.000000	1.031663
2308.000000	1.037890
2307.000000	1.072469
2306.000000	1.098392
2305.000000	1.054923
2304.000000	1.090576
2303.000000	1.035183
2302.000000	1.020411
2301.000000	1.066661
2300.000000	1.031329
2299.000000	1.019709
2298.000000	1.030539
2297.000000	1.048496
2296.000000	1.040875
2295.000000	1.020115
2294.000000	0.979291
2293.000000	1.038848
2292.000000	0.994799
2291.000000	0.996972
2290.000000	1.003009
2289.000000	0.971416
2288.000000	0.973783
2287.000000	0.954622
2286.000000	0.991358
2285.000000	1.010374
2284.000000	0.984260
2283.000000	0.976042
2282.000000	0.942970
2281.000000	0.916039
2280.000000	0.937401
2279.000000	0.925809
2278.000000	0.943919
2277.000000	0.898686
2276.000000	0.926012
2275.000000	0.922257
2274.000000	0.931154
2273.000000	0.882672
2272.000000	0.895912
2271.000000	0.895878
2270.000000	0.906277
2269.000000	0.899078
2268.000000	0.888347
2267.000000	0.884795
2266.000000	0.882208
2265.000000	0.871170
2264.000000	0.851584
2263.000000	0.852601
2262.000000	0.857168
2261.000000	0.857633
2260.000000	0.853407
2259.000000	0.850638
2258.000000	0.809812
2257.000000	0.812477
2256.000000	0.810193
2255.000000	0.833628
2254.000000	0.835161
2253.000000	0.816840
2252.000000	0.808917
2251.000000	0.806504
2250.000000	0.802418
2249.000000	0.804775
2248.000000	0.788828
2247.000000	0.792697
2246.000000	0.789110
2245.000000	0.787331
2244.000000	0.779923
2243.000000	0.774989
2242.000000	0.779789
2241.000000	0.772490
2240.000000	0.768896
2239.000000	0.767245
2238.000000	0.767529
2237.000000	0.770739
2236.000000	0.775354
2235.000000	0.766010
2234.000000	0.751509
2233.000000	0.735179
2232.000000	0.742239
2231.000000	0.749026
2230.000000	0.754162
2229.000000	0.750461
2228.000000	0.752488
2227.000000	0.755312
2226.000000	0.741469
2225.000000	0.729224
2224.000000	0.728128
2223.000000	0.729986
2222.000000	0.739947
2221.000000	0.735118
2220.000000	0.720079
2219.000000	0.730376
2218.000000	0.739321
2217.000000	0.732038
2216.000000	0.723573
2215.000000	0.705720
2214.000000	0.706240
2213.000000	0.710773
2212.000000	0.714276
2211.000000	0.713245
2210.000000	0.707423
2209.000000	0.703997
2208.000000	0.704892
2207.000000	0.708996
2206.000000	0.722182
2205.000000	0.709838
2204.000000	0.698838
2203.000000	0.697085
2202.000000	0.701093
2201.000000	0.708579
2200.000000	0.706428
2199.000000	0.696175
2198.000000	0.694084
2197.000000	0.693927
2196.000000	0.698827
2195.000000	0.685739
2194.000000	0.690342
2193.000000	0.692932
2192.000000	0.696592
2191.000000	0.693308
2190.000000	0.689691
2189.000000	0.687423
2188.000000	0.689564
2187.000000	0.693170
2186.000000	0.689582
2185.000000	0.684926
2184.000000	0.699065
2183.000000	0.704272
2182.000000	0.692968
2181.000000	0.689351
2180.000000	0.691775
2179.000000	0.692489
2178.000000	0.694632
2177.000000	0.688445
2176.000000	0.684861
2175.000000	0.684326
2174.000000	0.691337
2173.000000	0.694229
2172.000000	0.688526
2171.000000	0.691870
2170.000000	0.697130
2169.000000	0.692941
2168.000000	0.682764
2167.000000	0.684031
2166.000000	0.684038
2165.000000	0.691333
2164.000000	0.685185
2163.000000	0.684644
2162.000000	0.689453
2161.000000	0.693270
2160.000000	0.688738
2159.000000	0.691396
2158.000000	0.697369
2157.000000	0.688282
2156.000000	0.692919
2155.000000	0.681635
2154.000000	0.669825
2153.000000	0.669236
2152.000000	0.694613
2151.000000	0.685005
2150.000000	0.695392
2149.000000	0.668462
2148.000000	0.681051
2147.000000	0.676583
2146.000000	0.695604
2145.000000	0.695961
2144.000000	0.681432
2143.000000	0.674534
2142.000000	0.671136
2141.000000	0.669722
2140.000000	0.676917
2139.000000	0.670510
2138.000000	0.695726
2137.000000	0.689818
2136.000000	0.691589
2135.000000	0.679017
2134.000000	0.673675
2133.000000	0.677622
2132.000000	0.679375
2131.000000	0.663968
2130.000000	0.680202
2129.000000	0.668718
2128.000000	0.687381
2127.000000	0.675488
2126.000000	0.676858
2125.000000	0.666251
2124.000000	0.668526
2123.000000	0.670500
2122.000000	0.679173
2121.000000	0.663698
2120.000000	0.683060
2119.000000	0.661136
2118.000000	0.676767
2117.000000	0.660338
2116.000000	0.677231
2115.000000	0.662279
2114.000000	0.667254
2113.000000	0.661069
2112.000000	0.674840
2111.000000	0.658122
2110.000000	0.680134
2109.000000	0.654325
2108.000000	0.677103
2107.000000	0.676384
2106.000000	0.678449
2105.000000	0.665427
2104.000000	0.668195
2103.000000	0.670868
2102.000000	0.674270
2101.000000	0.665071
2100.000000	0.667881
2099.000000	0.670144
2098.000000	0.666283
2097.000000	0.672510
2096.000000	0.659383
2095.000000	0.661887
2094.000000	0.668590
2093.000000	0.676457
2092.000000	0.669460
2091.000000	0.668672
2090.000000	0.659879
2089.000000	0.675921
2088.000000	0.657266
2087.000000	0.668923
2086.000000	0.657318
2085.000000	0.675894
2084.000000	0.666488
2083.000000	0.665541
2082.000000	0.660107
2081.000000	0.672371
2080.000000	0.673838
2079.000000	0.673548
2078.000000	0.665509
2077.000000	0.671079
2076.000000	0.673291
2075.000000	0.661916
2074.000000	0.679075
2073.000000	0.670460
2072.000000	0.679362
2071.000000	0.671067
2070.000000	0.670078
2069.000000	0.669761
2068.000000	0.667139
2067.000000	0.662042
2066.000000	0.669321
2065.000000	0.662644
2064.000000	0.677673
2063.000000	0.669887
2062.000000	0.671204
2061.000000	0.666435
2060.000000	0.670150
2059.000000	0.670101
2058.000000	0.671617
2057.000000	0.673295
2056.000000	0.673664
2055.000000	0.671216
2054.000000	0.664206
2053.000000	0.665655
2052.000000	0.668803
2051.000000	0.674174
2050.000000	0.672433
2049.000000	0.676027
2048.000000	0.665624
2047.000000	0.677020
2046.000000	0.668507
2045.000000	0.675835
2044.000000	0.672538
2043.000000	0.671514
2042.000000	0.669696
2041.000000	0.665004
2040.000000	0.667846
2039.000000	0.670670
2038.000000	0.668623
2037.000000	0.667517
2036.000000	0.669812
2035.000000	0.672688
2034.000000	0.677332
2033.000000	0.672206
2032.000000	0.674431
2031.000000	0.670434
2030.000000	0.674856
2029.000000	0.671386
2028.000000	0.670458
2027.000000	0.669572
2026.000000	0.671329
2025.000000	0.671466
2024.000000	0.666513
2023.000000	0.671597
2022.000000	0.670797
2021.000000	0.671342
2020.000000	0.665344
2019.000000	0.668975
2018.000000	0.670740
2017.000000	0.671912
2016.000000	0.670017
2015.000000	0.673161
2014.000000	0.671646
2013.000000	0.672539
2012.000000	0.672051
2011.000000	0.674097
2010.000000	0.676245
2009.000000	0.673600
2008.000000	0.675776
2007.000000	0.673758
2006.000000	0.676319
2005.000000	0.674386
2004.000000	0.672844
2003.000000	0.672352
2002.000000	0.672831
2001.000000	0.673713
2000.000000	0.673628
1999.000000	0.678063
1998.000000	0.677852
1997.000000	0.676643
1996.000000	0.675862
1995.000000	0.675259
1994.000000	0.676992
1993.000000	0.676749
1992.000000	0.673596
1991.000000	0.676065
1990.000000	0.676893
1989.000000	0.675929
1988.000000	0.674755
1987.000000	0.675159
1986.000000	0.676885
1985.000000	0.677530
1984.000000	0.679636
1983.000000	0.678566
1982.000000	0.679817
1981.000000	0.678596
1980.000000	0.677555
1979.000000	0.677753
1978.000000	0.678236
1977.000000	0.679355
1976.000000	0.678051
1975.000000	0.678877
1974.000000	0.679990
1973.000000	0.680602
1972.000000	0.679775
1971.000000	0.679730
1970.000000	0.680710
1969.000000	0.680949
1968.000000	0.679058
1967.000000	0.678833
1966.000000	0.680477
1965.000000	0.679842
1964.000000	0.679649
1963.000000	0.681444
1962.000000	0.683584
1961.000000	0.682312
1960.000000	0.681723
1959.000000	0.681302
1958.000000	0.685467
1957.000000	0.685017
1956.000000	0.680285
1955.000000	0.681906
1954.000000	0.682796
1953.000000	0.683872
1952.000000	0.682974
1951.000000	0.686352
1950.000000	0.687863
1949.000000	0.685287
1948.000000	0.683151
1947.000000	0.683068
1946.000000	0.683757
1945.000000	0.684970
1944.000000	0.684197
1943.000000	0.684357
1942.000000	0.684847
1941.000000	0.680951
1940.000000	0.679713
1939.000000	0.683140
1938.000000	0.683515
1937.000000	0.683206
1936.000000	0.682714
1935.000000	0.687549
1934.000000	0.682584
1933.000000	0.682925
1932.000000	0.682478
1931.000000	0.687480
1930.000000	0.684372
1929.000000	0.681585
1928.000000	0.682215
1927.000000	0.679731
1926.000000	0.684182
1925.000000	0.681799
1924.000000	0.679049
1923.000000	0.683549
1922.000000	0.684117
1921.000000	0.688673
1920.000000	0.681765
1919.000000	0.686270
1918.000000	0.682706
1917.000000	0.681202
1916.000000	0.683704
1915.000000	0.684190
1914.000000	0.685533
1913.000000	0.678984
1912.000000	0.681937
1911.000000	0.685803
1910.000000	0.683978
1909.000000	0.684486
1908.000000	0.682999
1907.000000	0.683960
1906.000000	0.682621
1905.000000	0.682524
1904.000000	0.683530
1903.000000	0.689058
1902.000000	0.685074
1901.000000	0.680888
1900.000000	0.683569
1899.000000	0.684283
1898.000000	0.683589
1897.000000	0.679436
1896.000000	0.684220
1895.000000	0.680650
1894.000000	0.680622
1893.000000	0.684708
1892.000000	0.681924
1891.000000	0.680747
1890.000000	0.676404
1889.000000	0.681802
1888.000000	0.679263
1887.000000	0.679214
1886.000000	0.678589
1885.000000	0.680171
1884.000000	0.684995
1883.000000	0.681369
1882.000000	0.680653
1881.000000	0.683461
1880.000000	0.682079
1879.000000	0.687546
1878.000000	0.682307
1877.000000	0.686205
1876.000000	0.682638
1875.000000	0.681711
1874.000000	0.683415
1873.000000	0.684794
1872.000000	0.686682
1871.000000	0.680214
1870.000000	0.689914
1869.000000	0.684424
1868.000000	0.685999
1867.000000	0.687667
1866.000000	0.690024
1865.000000	0.693960
1864.000000	0.687930
1863.000000	0.694191
1862.000000	0.693808
1861.000000	0.689999
1860.000000	0.689510
1859.000000	0.687968
1858.000000	0.697228
1857.000000	0.690198
1856.000000	0.692230
1855.000000	0.697195
1854.000000	0.689508
1853.000000	0.694179
1852.000000	0.693842
1851.000000	0.696393
1850.000000	0.695783
1849.000000	0.695694
1848.000000	0.699082
1847.000000	0.692688
1846.000000	0.699143
1845.000000	0.693707
1844.000000	0.697593
1843.000000	0.701001
1842.000000	0.695160
1841.000000	0.699978
1840.000000	0.698365
1839.000000	0.701335
1838.000000	0.698457
1837.000000	0.699566
1836.000000	0.703352
1835.000000	0.697238
1834.000000	0.700737
1833.000000	0.700865
1832.000000	0.702027
1831.000000	0.699978
1830.000000	0.700565
1829.000000	0.704015
1828.000000	0.700790
1827.000000	0.702796
1826.000000	0.701212
1825.000000	0.702526
1824.000000	0.702484
1823.000000	0.700477
1822.000000	0.701588
1821.000000	0.701898
1820.000000	0.700267
1819.000000	0.701805
1818.000000	0.702776
1817.000000	0.700562
1816.000000	0.700622
1815.000000	0.702303
1814.000000	0.700302
1813.000000	0.699212
1812.000000	0.701120
1811.000000	0.702497
1810.000000	0.701755
1809.000000	0.700361
1808.000000	0.702263
1807.000000	0.702955
1806.000000	0.702848
1805.000000	0.703919
1804.000000	0.704431
1803.000000	0.704193
1802.000000	0.703834
1801.000000	0.705250
1800.000000	0.706360
1799.000000	0.707400
1798.000000	0.707298
1797.000000	0.709974
1796.000000	0.709884
1795.000000	0.709558
1794.000000	0.711690
1793.000000	0.713683
1792.000000	0.714914
1791.000000	0.713965
1790.000000	0.716803
1789.000000	0.717776
1788.000000	0.717515
1787.000000	0.720468
1786.000000	0.721025
1785.000000	0.721904
1784.000000	0.722887
1783.000000	0.723746
1782.000000	0.724421
1781.000000	0.723726
1780.000000	0.727433
1779.000000	0.729092
1778.000000	0.729283
1777.000000	0.730479
1776.000000	0.729885
1775.000000	0.732659
1774.000000	0.730800
1773.000000	0.732062
1772.000000	0.734063
1771.000000	0.734462
1770.000000	0.734942
1769.000000	0.735917
1768.000000	0.739377
1767.000000	0.740926
1766.000000	0.740324
1765.000000	0.742785
1764.000000	0.742643
1763.000000	0.743495
1762.000000	0.746332
1761.000000	0.748129
1760.000000	0.749447
1759.000000	0.750843
1758.000000	0.753078
1757.000000	0.754046
1756.000000	0.753782
1755.000000	0.755469
1754.000000	0.756964
1753.000000	0.757749
1752.000000	0.760594
1751.000000	0.761673
1750.000000	0.761589
1749.000000	0.760280
1748.000000	0.760775
1747.000000	0.764486
1746.000000	0.763976
1745.000000	0.764769
1744.000000	0.765978
1743.000000	0.765642
1742.000000	0.764094
1741.000000	0.763822
1740.000000	0.765696
1739.000000	0.765146
1738.000000	0.764977
1737.000000	0.767039
1736.000000	0.766485
1735.000000	0.765932
1734.000000	0.768310
1733.000000	0.769803
1732.000000	0.770733
1731.000000	0.772655
1730.000000	0.774795
1729.000000	0.775833
1728.000000	0.776162
1727.000000	0.779320
1726.000000	0.783480
1725.000000	0.785387
1724.000000	0.788057
1723.000000	0.791225
1722.000000	0.791869
1721.000000	0.793313
1720.000000	0.795153
1719.000000	0.797385
1718.000000	0.799035
1717.000000	0.800704
1716.000000	0.803846
1715.000000	0.800707
1714.000000	0.799515
1713.000000	0.801130
1712.000000	0.798769
1711.000000	0.796726
1710.000000	0.793434
1709.000000	0.790453
1708.000000	0.786221
1707.000000	0.780881
1706.000000	0.776420
1705.000000	0.773384
1704.000000	0.768818
1703.000000	0.763573
1702.000000	0.756646
1701.000000	0.751962
1700.000000	0.746846
1699.000000	0.741047
1698.000000	0.734041
1697.000000	0.726694
1696.000000	0.722693
1695.000000	0.717450
1694.000000	0.711468
1693.000000	0.706569
1692.000000	0.701936
1691.000000	0.695319
1690.000000	0.691629
1689.000000	0.686813
1688.000000	0.682152
1687.000000	0.677295
1686.000000	0.673621
1685.000000	0.672768
1684.000000	0.668852
1683.000000	0.666079
1682.000000	0.665511
1681.000000	0.659356
1680.000000	0.656967
1679.000000	0.654795
1678.000000	0.650981
1677.000000	0.650290
1676.000000	0.650461
1675.000000	0.648682
1674.000000	0.647653
1673.000000	0.646674
1672.000000	0.646749
1671.000000	0.644010
1670.000000	0.643281
1669.000000	0.642389
1668.000000	0.643714
1667.000000	0.641698
1666.000000	0.640707
1665.000000	0.641048
1664.000000	0.640220
1663.000000	0.640908
1662.000000	0.640204
1661.000000	0.638269
1660.000000	0.637812
1659.000000	0.636826
1658.000000	0.635534
1657.000000	0.635761
1656.000000	0.635864
1655.000000	0.635584
1654.000000	0.634494
1653.000000	0.634100
1652.000000	0.635282
1651.000000	0.633395
1650.000000	0.632347
1649.000000	0.631989
1648.000000	0.631071
1647.000000	0.630654
1646.000000	0.630580
1645.000000	0.629619
1644.000000	0.629614
1643.000000	0.630051
1642.000000	0.628781
1641.000000	0.630449
1640.000000	0.629247
1639.000000	0.629044
1638.000000	0.627817
1637.000000	0.627634
1636.000000	0.627904
1635.000000	0.628401
1634.000000	0.627577
1633.000000	0.627383
1632.000000	0.628341
1631.000000	0.626408
1630.000000	0.629232
1629.000000	0.626660
1628.000000	0.626703
1627.000000	0.628344
1626.000000	0.626945
1625.000000	0.627025
1624.000000	0.626669
1623.000000	0.627524
1622.000000	0.626217
1621.000000	0.626819
1620.000000	0.626275
1619.000000	0.628087
1618.000000	0.625511
1617.000000	0.627313
1616.000000	0.628168
1615.000000	0.626314
1614.000000	0.627572
1613.000000	0.628033
1612.000000	0.625959
1611.000000	0.626619
1610.000000	0.627447
1609.000000	0.625213
1608.000000	0.626234
1607.000000	0.626543
1606.000000	0.626247
1605.000000	0.627028
1604.000000	0.628335
1603.000000	0.627268
1602.000000	0.626926
1601.000000	0.627122
1600.000000	0.627147
1599.000000	0.627667
1598.000000	0.626181
1597.000000	0.627926
1596.000000	0.625874
1595.000000	0.626639
1594.000000	0.628100
1593.000000	0.627392
1592.000000	0.626946
1591.000000	0.628274
1590.000000	0.628332
1589.000000	0.626437
1588.000000	0.628528
1587.000000	0.627723
1586.000000	0.627762
1585.000000	0.628544
1584.000000	0.628489
1583.000000	0.627022
1582.000000	0.629031
1581.000000	0.628675
1580.000000	0.628317
1579.000000	0.628902
1578.000000	0.628883
1577.000000	0.628958
1576.000000	0.628765
1575.000000	0.629046
1574.000000	0.629324
1573.000000	0.628628
1572.000000	0.628615
1571.000000	0.629378
1570.000000	0.629247
1569.000000	0.629321
1568.000000	0.629537
1567.000000	0.627832
1566.000000	0.628750
1565.000000	0.629431
1564.000000	0.629223
1563.000000	0.629062
1562.000000	0.630147
1561.000000	0.628308
1560.000000	0.629244
1559.000000	0.630431
1558.000000	0.629190
1557.000000	0.629903
1556.000000	0.630250
1555.000000	0.630546
1554.000000	0.629984
1553.000000	0.631334
1552.000000	0.630293
1551.000000	0.631507
1550.000000	0.631595
1549.000000	0.630431
1548.000000	0.630247
1547.000000	0.631418
1546.000000	0.630982
1545.000000	0.631467
1544.000000	0.631928
1543.000000	0.632038
1542.000000	0.632138
1541.000000	0.632406
1540.000000	0.633377
1539.000000	0.632767
1538.000000	0.633005
1537.000000	0.633077
1536.000000	0.632969
1535.000000	0.632711
1534.000000	0.633916
1533.000000	0.634004
1532.000000	0.633646
1531.000000	0.634430
1530.000000	0.634169
1529.000000	0.633920
1528.000000	0.634663
1527.000000	0.634792
1526.000000	0.633704
1525.000000	0.635413
1524.000000	0.635010
1523.000000	0.634243
1522.000000	0.635211
1521.000000	0.635594
1520.000000	0.635312
1519.000000	0.636518
1518.000000	0.635917
1517.000000	0.634896
1516.000000	0.635852
1515.000000	0.635781
1514.000000	0.636229
1513.000000	0.637328
1512.000000	0.637116
1511.000000	0.636347
1510.000000	0.637467
1509.000000	0.637207
1508.000000	0.636875
1507.000000	0.637531
1506.000000	0.637671
1505.000000	0.637058
1504.000000	0.637645
1503.000000	0.638074
1502.000000	0.637876
1501.000000	0.638426
1500.000000	0.638577
1499.000000	0.638534
1498.000000	0.639029
1497.000000	0.638975
1496.000000	0.638667
1495.000000	0.639751
1494.000000	0.639834
1493.000000	0.639272
1492.000000	0.639689
1491.000000	0.640178
1490.000000	0.640205
1489.000000	0.640807
1488.000000	0.641231
1487.000000	0.640870
1486.000000	0.641338
1485.000000	0.641722
1484.000000	0.641721
1483.000000	0.642148
1482.000000	0.642201
1481.000000	0.642274
1480.000000	0.642630
1479.000000	0.642933
1478.000000	0.642819
1477.000000	0.643467
1476.000000	0.643824
1475.000000	0.643494
1474.000000	0.644256
1473.000000	0.644589
1472.000000	0.644796
1471.000000	0.645117
1470.000000	0.645490
1469.000000	0.645419
1468.000000	0.645905
1467.000000	0.646531
1466.000000	0.645766
1465.000000	0.646604
1464.000000	0.647283
1463.000000	0.646775
1462.000000	0.647743
1461.000000	0.648801
1460.000000	0.648018
1459.000000	0.648572
1458.000000	0.648683
1457.000000	0.649188
1456.000000	0.649603
1455.000000	0.650071
1454.000000	0.649628
1453.000000	0.650306
1452.000000	0.651567
1451.000000	0.651259
1450.000000	0.651224
1449.000000	0.652722
1448.000000	0.652305
1447.000000	0.652560
1446.000000	0.653844
1445.000000	0.653999
1444.000000	0.653823
1443.000000	0.654376
1442.000000	0.655466
1441.000000	0.655158
1440.000000	0.656249
1439.000000	0.656747
1438.000000	0.657161
1437.000000	0.658122
1436.000000	0.659139
1435.000000	0.659418
1434.000000	0.661076
1433.000000	0.661208
1432.000000	0.660778
1431.000000	0.662261
1430.000000	0.663019
1429.000000	0.662470
1428.000000	0.663790
1427.000000	0.665105
1426.000000	0.663938
1425.000000	0.665058
1424.000000	0.665191
1423.000000	0.664856
1422.000000	0.664680
1421.000000	0.665990
1420.000000	0.666120
1419.000000	0.666540
1418.000000	0.667239
1417.000000	0.666934
1416.000000	0.667217
1415.000000	0.667081
1414.000000	0.666610
1413.000000	0.666036
1412.000000	0.665744
1411.000000	0.666370
1410.000000	0.666244
1409.000000	0.666678
1408.000000	0.667294
1407.000000	0.666789
1406.000000	0.666299
1405.000000	0.666371
1404.000000	0.667095
1403.000000	0.666881
1402.000000	0.667186
1401.000000	0.667153
1400.000000	0.665370
1399.000000	0.666848
1398.000000	0.667690
1397.000000	0.666066
1396.000000	0.666524
1395.000000	0.667604
1394.000000	0.665070
1393.000000	0.665851
1392.000000	0.665334
1391.000000	0.664714
1390.000000	0.664510
1389.000000	0.665809
1388.000000	0.664133
1387.000000	0.663755
1386.000000	0.665144
1385.000000	0.663418
1384.000000	0.663482
1383.000000	0.662762
1382.000000	0.662321
1381.000000	0.662107
1380.000000	0.661634
1379.000000	0.661080
1378.000000	0.660742
1377.000000	0.661263
1376.000000	0.659318
1375.000000	0.659807
1374.000000	0.658498
1373.000000	0.658328
1372.000000	0.657872
1371.000000	0.658609
1370.000000	0.655725
1369.000000	0.656435
1368.000000	0.655260
1367.000000	0.654969
1366.000000	0.656502
1365.000000	0.655200
1364.000000	0.654293
1363.000000	0.654901
1362.000000	0.654792
1361.000000	0.651982
1360.000000	0.654075
1359.000000	0.654552
1358.000000	0.653643
1357.000000	0.654369
1356.000000	0.653702
1355.000000	0.653493
1354.000000	0.653440
1353.000000	0.653278
1352.000000	0.653072
1351.000000	0.652919
1350.000000	0.653022
1349.000000	0.653675
1348.000000	0.652728
1347.000000	0.652548
1346.000000	0.653483
1345.000000	0.653917
1344.000000	0.652901
1343.000000	0.654169
1342.000000	0.653792
1341.000000	0.653244
1340.000000	0.653617
1339.000000	0.653710
1338.000000	0.653639
1337.000000	0.653873
1336.000000	0.654684
1335.000000	0.654139
1334.000000	0.654379
1333.000000	0.654875
1332.000000	0.654982
1331.000000	0.654422
1330.000000	0.655153
1329.000000	0.655361
1328.000000	0.655236
1327.000000	0.655367
1326.000000	0.655028
1325.000000	0.655682
1324.000000	0.655226
1323.000000	0.656585
1322.000000	0.656447
1321.000000	0.655689
1320.000000	0.656536
1319.000000	0.657228
1318.000000	0.656524
1317.000000	0.656537
1316.000000	0.657260
1315.000000	0.657693
1314.000000	0.657810
1313.000000	0.657957
1312.000000	0.657821
1311.000000	0.657872
1310.000000	0.658409
1309.000000	0.659020
1308.000000	0.659224
1307.000000	0.658922
1306.000000	0.659552
1305.000000	0.659935
1304.000000	0.659210
1303.000000	0.660201
1302.000000	0.659941
1301.000000	0.659675
1300.000000	0.660357
1299.000000	0.660567
1298.000000	0.660346
1297.000000	0.661235
1296.000000	0.661073
1295.000000	0.661011
1294.000000	0.661449
1293.000000	0.661415
1292.000000	0.661652
1291.000000	0.662316
1290.000000	0.662158
1289.000000	0.662120
1288.000000	0.662793
1287.000000	0.662001
1286.000000	0.662899
1285.000000	0.663062
1284.000000	0.662438
1283.000000	0.663325
1282.000000	0.663860
1281.000000	0.663794
1280.000000	0.664292
1279.000000	0.664467
1278.000000	0.665000
1277.000000	0.665355
1276.000000	0.665476
1275.000000	0.666009
1274.000000	0.665749
1273.000000	0.665467
1272.000000	0.666465
1271.000000	0.666626
1270.000000	0.666562
1269.000000	0.667067
1268.000000	0.667192
1267.000000	0.666985
1266.000000	0.667484
1265.000000	0.667716
1264.000000	0.667996
1263.000000	0.668300
1262.000000	0.668022
1261.000000	0.668572
1260.000000	0.668967
1259.000000	0.668806
1258.000000	0.669069
1257.000000	0.669489
1256.000000	0.670051
1255.000000	0.670127
1254.000000	0.669608
1253.000000	0.670249
1252.000000	0.671063
1251.000000	0.671036
1250.000000	0.671140
1249.000000	0.671290
1248.000000	0.671393
1247.000000	0.672487
1246.000000	0.673031
1245.000000	0.672706
1244.000000	0.672720
1243.000000	0.672933
1242.000000	0.673429
1241.000000	0.673891
1240.000000	0.674279
1239.000000	0.674809
1238.000000	0.675043
1237.000000	0.674801
1236.000000	0.675571
1235.000000	0.676268
1234.000000	0.676247
1233.000000	0.677084
1232.000000	0.677693
1231.000000	0.677754
1230.000000	0.678286
1229.000000	0.678254
1228.000000	0.678688
1227.000000	0.680248
1226.000000	0.680573
1225.000000	0.680726
1224.000000	0.681409
1223.000000	0.681782
1222.000000	0.682595
1221.000000	0.683100
1220.000000	0.683488
1219.000000	0.684117
1218.000000	0.684592
1217.000000	0.685318
1216.000000	0.686279
1215.000000	0.686590
1214.000000	0.688062
1213.000000	0.688780
1212.000000	0.689746
1211.000000	0.691212
1210.000000	0.691592
1209.000000	0.691647
1208.000000	0.692191
1207.000000	0.692787
1206.000000	0.694068
1205.000000	0.694877
1204.000000	0.694954
1203.000000	0.696199
1202.000000	0.696631
1201.000000	0.697505
1200.000000	0.699086
1199.000000	0.698518
1198.000000	0.698916
1197.000000	0.698761
1196.000000	0.699052
1195.000000	0.699700
1194.000000	0.699899
1193.000000	0.699952
1192.000000	0.700721
1191.000000	0.700578
1190.000000	0.700301
1189.000000	0.700819
1188.000000	0.700374
1187.000000	0.700702
1186.000000	0.701436
1185.000000	0.701257
1184.000000	0.700660
1183.000000	0.701316
1182.000000	0.700158
1181.000000	0.700548
1180.000000	0.700233
1179.000000	0.700489
1178.000000	0.701163
1177.000000	0.700677
1176.000000	0.700945
1175.000000	0.700843
1174.000000	0.700878
1173.000000	0.700573
1172.000000	0.700380
1171.000000	0.699463
1170.000000	0.700468
1169.000000	0.700215
1168.000000	0.699676
1167.000000	0.699890
1166.000000	0.698746
1165.000000	0.699895
1164.000000	0.698609
1163.000000	0.698457
1162.000000	0.697941
1161.000000	0.696803
1160.000000	0.696375
1159.000000	0.697439
1158.000000	0.696314
1157.000000	0.696401
1156.000000	0.695922
1155.000000	0.694866
1154.000000	0.695947
1153.000000	0.694272
1152.000000	0.694442
1151.000000	0.694391
1150.000000	0.693987
1149.000000	0.693400
1148.000000	0.693609
1147.000000	0.694105
1146.000000	0.694044
1145.000000	0.693268
1144.000000	0.693157
1143.000000	0.693978
1142.000000	0.693214
1141.000000	0.693427
1140.000000	0.693393
1139.000000	0.693385
1138.000000	0.693521
1137.000000	0.692970
1136.000000	0.693613
1135.000000	0.693676
1134.000000	0.693171
1133.000000	0.693549
1132.000000	0.694420
1131.000000	0.694101
1130.000000	0.694793
1129.000000	0.693756
1128.000000	0.693796
1127.000000	0.694666
1126.000000	0.694188
1125.000000	0.695515
1124.000000	0.694751
1123.000000	0.695454
1122.000000	0.695224
1121.000000	0.694471
1120.000000	0.696030
1119.000000	0.696437
1118.000000	0.695465
1117.000000	0.696742
1116.000000	0.696565
1115.000000	0.696389
1114.000000	0.697430
1113.000000	0.696278
1112.000000	0.697245
1111.000000	0.697571
1110.000000	0.696995
1109.000000	0.697914
1108.000000	0.697856
1107.000000	0.698362
1106.000000	0.698418
1105.000000	0.697996
1104.000000	0.698222
1103.000000	0.699028
1102.000000	0.698157
1101.000000	0.699179
1100.000000	0.698988
1099.000000	0.699818
1098.000000	0.700700
1097.000000	0.699077
1096.000000	0.700433
1095.000000	0.699677
1094.000000	0.700762
1093.000000	0.700603
1092.000000	0.700693
1091.000000	0.701305
1090.000000	0.701294
1089.000000	0.700932
1088.000000	0.701629
1087.000000	0.701668
1086.000000	0.702268
1085.000000	0.702185
1084.000000	0.701913
1083.000000	0.704529
1082.000000	0.703513
1081.000000	0.703234
1080.000000	0.703412
1079.000000	0.703085
1078.000000	0.704384
1077.000000	0.704869
1076.000000	0.704307
1075.000000	0.704848
1074.000000	0.704608
1073.000000	0.705387
1072.000000	0.705953
1071.000000	0.705341
1070.000000	0.706332
1069.000000	0.705582
1068.000000	0.705697
1067.000000	0.706485
1066.000000	0.705662
1065.000000	0.706642
1064.000000	0.706241
1063.000000	0.706384
1062.000000	0.706901
1061.000000	0.707069
1060.000000	0.707223
1059.000000	0.708383
1058.000000	0.707936
1057.000000	0.708947
1056.000000	0.708040
1055.000000	0.708757
1054.000000	0.709340
1053.000000	0.708848
1052.000000	0.710316
1051.000000	0.709592
1050.000000	0.709114
1049.000000	0.710064
1048.000000	0.710828
1047.000000	0.710480
1046.000000	0.710467
1045.000000	0.711491
1044.000000	0.712757
1043.000000	0.711856
1042.000000	0.710762
1041.000000	0.711521
1040.000000	0.712312
1039.000000	0.713080
1038.000000	0.711766
1037.000000	0.712244
1036.000000	0.712917
1035.000000	0.712715
1034.000000	0.713100
1033.000000	0.713125
1032.000000	0.712967
1031.000000	0.714396
1030.000000	0.714693
1029.000000	0.714621
1028.000000	0.714484
1027.000000	0.715023
1026.000000	0.715810
1025.000000	0.714799
1024.000000	0.715286
1023.000000	0.715569
1022.000000	0.715957
1021.000000	0.716643
1020.000000	0.715811
1019.000000	0.716082
1018.000000	0.717361
1017.000000	0.716869
1016.000000	0.716562
1015.000000	0.716367
1014.000000	0.716887
1013.000000	0.717653
1012.000000	0.716626
1011.000000	0.717231
1010.000000	0.718112
1009.000000	0.719024
1008.000000	0.719401
1007.000000	0.718290
1006.000000	0.719029
1005.000000	0.719214
1004.000000	0.718478
1003.000000	0.718974
1002.000000	0.719392
1001.000000	0.719925
1000.000000	0.719252
999.000000	0.718921
998.000000	0.720092
997.000000	0.719984
996.000000	0.720877
995.000000	0.720308
994.000000	0.719588
993.000000	0.719811
992.000000	0.720376
991.000000	0.721931
990.000000	0.721924
989.000000	0.721100
988.000000	0.722218
987.000000	0.721505
986.000000	0.721616
985.000000	0.722455
984.000000	0.721606
983.000000	0.723545
982.000000	0.724145
981.000000	0.722943
980.000000	0.722932
979.000000	0.723615
978.000000	0.723740
977.000000	0.723051
976.000000	0.723012
975.000000	0.724400
974.000000	0.723866
973.000000	0.725465
972.000000	0.723658
971.000000	0.721963
970.000000	0.723998
969.000000	0.724498
968.000000	0.727120
967.000000	0.726382
966.000000	0.726222
965.000000	0.727831
964.000000	0.727627
963.000000	0.727712
962.000000	0.727423
961.000000	0.726132
960.000000	0.727913
959.000000	0.729129
958.000000	0.728673
957.000000	0.726480
956.000000	0.728212
955.000000	0.729357
954.000000	0.728700
953.000000	0.728837
952.000000	0.727572
951.000000	0.728622
950.000000	0.729877
949.000000	0.729835
948.000000	0.728885
947.000000	0.727525
946.000000	0.729790
945.000000	0.730486
944.000000	0.728170
943.000000	0.729159
942.000000	0.729068
941.000000	0.729418
940.000000	0.731325
939.000000	0.732014
938.000000	0.736179
937.000000	0.731191
936.000000	0.731838
935.000000	0.733877
934.000000	0.731316
933.000000	0.730789
932.000000	0.735137
931.000000	0.737100
930.000000	0.734995
929.000000	0.732943
928.000000	0.732607
927.000000	0.734927
926.000000	0.734472
925.000000	0.734281
924.000000	0.733066
923.000000	0.738420
922.000000	0.733944
921.000000	0.735200
920.000000	0.737803
919.000000	0.738151
918.000000	0.734101
917.000000	0.736543
916.000000	0.734679
915.000000	0.739988
914.000000	0.737663
913.000000	0.739138
912.000000	0.737222
911.000000	0.740514
910.000000	0.738343
909.000000	0.735302
908.000000	0.733167
907.000000	0.733384
906.000000	0.747037
905.000000	0.745483
904.000000	0.733465
903.000000	0.740567
902.000000	0.735442
901.000000	0.739380
900.000000	0.734919
899.000000	0.735953
898.000000	0.741698
897.000000	0.744996
896.000000	0.743562
895.000000	0.747885
894.000000	0.733298
893.000000	0.742923
892.000000	0.736524
891.000000	0.749060
890.000000	0.736769
889.000000	0.738762
888.000000	0.740740
887.000000	0.735303
886.000000	0.749521
885.000000	0.742911
884.000000	0.753685
883.000000	0.741827
882.000000	0.740484
881.000000	0.743362
880.000000	0.733989
879.000000	0.737885
878.000000	0.745041
877.000000	0.741042
876.000000	0.754689
875.000000	0.735874
874.000000	0.739251
873.000000	0.743494
872.000000	0.743490
871.000000	0.754432
870.000000	0.736646
869.000000	0.747728
868.000000	0.734280
867.000000	0.737821
866.000000	0.738590
865.000000	0.738291
864.000000	0.746333
863.000000	0.747962
862.000000	0.742886
861.000000	0.755341
860.000000	0.738896
859.000000	0.743702
858.000000	0.751667
857.000000	0.753885
856.000000	0.748815
855.000000	0.746584
854.000000	0.753280
853.000000	0.751059
852.000000	0.743174
851.000000	0.747931
850.000000	0.744252
849.000000	0.746770
848.000000	0.747247
847.000000	0.746510
846.000000	0.748948
845.000000	0.749800
844.000000	0.745150
843.000000	0.746426
842.000000	0.744354
841.000000	0.749116
840.000000	0.746300
839.000000	0.746483
838.000000	0.748690
837.000000	0.746494
836.000000	0.746857
835.000000	0.746272
834.000000	0.745912
833.000000	0.745891
832.000000	0.746292
831.000000	0.746404
830.000000	0.746404
829.000000	0.747956
828.000000	0.747560
827.000000	0.746819
826.000000	0.748309
825.000000	0.748406
824.000000	0.747901
823.000000	0.746367
822.000000	0.748069
821.000000	0.747470
820.000000	0.747817
819.000000	0.746748
818.000000	0.748005
817.000000	0.749000
816.000000	0.748625
815.000000	0.748978
814.000000	0.747378
813.000000	0.748651
812.000000	0.749003
811.000000	0.747882
810.000000	0.749262
809.000000	0.749789
808.000000	0.749587
807.000000	0.749618
806.000000	0.749499
805.000000	0.749646
804.000000	0.750634
803.000000	0.750134
802.000000	0.750298
801.000000	0.751186
800.000000	0.750758
799.000000	0.750674
798.000000	0.750826
797.000000	0.750488
796.000000	0.751195
795.000000	0.750820
794.000000	0.751205
793.000000	0.751670
792.000000	0.751923
791.000000	0.752652
790.000000	0.752621
789.000000	0.752124
788.000000	0.751617
787.000000	0.752410
786.000000	0.753219
785.000000	0.753047
784.000000	0.752857
783.000000	0.753952
782.000000	0.754781
781.000000	0.755537
780.000000	0.756018
779.000000	0.756168
778.000000	0.756603
777.000000	0.756303
776.000000	0.757394
775.000000	0.757712
774.000000	0.757220
773.000000	0.757239
772.000000	0.757501
771.000000	0.758259
770.000000	0.758615
769.000000	0.759721
768.000000	0.759606
767.000000	0.759888
766.000000	0.760832
765.000000	0.761030
764.000000	0.761330
763.000000	0.761719
762.000000	0.762987
761.000000	0.762988
760.000000	0.763426
759.000000	0.764773
758.000000	0.765663
757.000000	0.766159
756.000000	0.766936
755.000000	0.768094
754.000000	0.768535
753.000000	0.769334
752.000000	0.770268
751.000000	0.771093
750.000000	0.771678
749.000000	0.772906
748.000000	0.773842
747.000000	0.774182
746.000000	0.775406
745.000000	0.776385
744.000000	0.777798
743.000000	0.779510
742.000000	0.780106
741.000000	0.780472
740.000000	0.781135
739.000000	0.782093
738.000000	0.782799
737.000000	0.783143
736.000000	0.784930
735.000000	0.786910
734.000000	0.787308
733.000000	0.787398
732.000000	0.788177
731.000000	0.789147
730.000000	0.789679
729.000000	0.790054
728.000000	0.790645
727.000000	0.791815
726.000000	0.792510
725.000000	0.792534
724.000000	0.793461
723.000000	0.794640
722.000000	0.794459
721.000000	0.795320
720.000000	0.795838
719.000000	0.796851
718.000000	0.797144
717.000000	0.796375
716.000000	0.796804
715.000000	0.798225
714.000000	0.799345
713.000000	0.799920
712.000000	0.800426
711.000000	0.800908
710.000000	0.802141
709.000000	0.802449
708.000000	0.803042
707.000000	0.803203
706.000000	0.804195
705.000000	0.805269
704.000000	0.804900
703.000000	0.805307
702.000000	0.806509
701.000000	0.806065
700.000000	0.806958
699.000000	0.806997
698.000000	0.807967
697.000000	0.808149
696.000000	0.807791
695.000000	0.808008
694.000000	0.808412
693.000000	0.808630
692.000000	0.808606
691.000000	0.808503
690.000000	0.807991
689.000000	0.807157
688.000000	0.806964
687.000000	0.805691
686.000000	0.806432
685.000000	0.805571
684.000000	0.804241
683.000000	0.803620
682.000000	0.802377
681.000000	0.801948
680.000000	0.801242
679.000000	0.799317
678.000000	0.797874
677.000000	0.797067
676.000000	0.796729
675.000000	0.796167
674.000000	0.794019
673.000000	0.793903
672.000000	0.793470
671.000000	0.792305
670.000000	0.790877
669.000000	0.790640
668.000000	0.789818
667.000000	0.789361
666.000000	0.789062
665.000000	0.788229
664.000000	0.787988
663.000000	0.787494
662.000000	0.787008
661.000000	0.787593
660.000000	0.787800
659.000000	0.787267
658.000000	0.787787
657.000000	0.787594
656.000000	0.786433
655.000000	0.787550
654.000000	0.787603
653.000000	0.787670
652.000000	0.787667
651.000000	0.788571
650.000000	0.788678
649.000000	0.789158
648.000000	0.789115
647.000000	0.789760
646.000000	0.790624
645.000000	0.790801
644.000000	0.791429
643.000000	0.791558
642.000000	0.792365
641.000000	0.792819
640.000000	0.793490
639.000000	0.794180
638.000000	0.794879
637.000000	0.794793
636.000000	0.795862
635.000000	0.796302
634.000000	0.797745
633.000000	0.797473
632.000000	0.798382
631.000000	0.799596
630.000000	0.800349
629.000000	0.800783
628.000000	0.801476
627.000000	0.802484
626.000000	0.803323
625.000000	0.803751
624.000000	0.804805
623.000000	0.804592
622.000000	0.805355
621.000000	0.805865
620.000000	0.806315
619.000000	0.806238
618.000000	0.806112
617.000000	0.806444
616.000000	0.806751
615.000000	0.807109
614.000000	0.806300
613.000000	0.806368
612.000000	0.806787
611.000000	0.805785
610.000000	0.806318
609.000000	0.806005
608.000000	0.804202
607.000000	0.804955
606.000000	0.804406
605.000000	0.803714
604.000000	0.803570
603.000000	0.802941
602.000000	0.802185
601.000000	0.801893
600.000000	0.800925
599.000000	0.800078
598.000000	0.800002
597.000000	0.799374
596.000000	0.799594
595.000000	0.798630
594.000000	0.797508
593.000000	0.797916
592.000000	0.797018
591.000000	0.796414
590.000000	0.796605
589.000000	0.796640
588.000000	0.795968
587.000000	0.796495
586.000000	0.796627
585.000000	0.796218
584.000000	0.796952
583.000000	0.797445
582.000000	0.798255
581.000000	0.798199
580.000000	0.799158
579.000000	0.800387
578.000000	0.801714
577.000000	0.802572
576.000000	0.804129
575.000000	0.805518
574.000000	0.806367
573.000000	0.807543
572.000000	0.808196
571.000000	0.808315
570.000000	0.808844
569.000000	0.808061
568.000000	0.807586
567.000000	0.806452
566.000000	0.805021
565.000000	0.803580
564.000000	0.801921
563.000000	0.799999
562.000000	0.798164
561.000000	0.796247
560.000000	0.794043
559.000000	0.791866
558.000000	0.789431
557.000000	0.787192
556.000000	0.784928
555.000000	0.782599
554.000000	0.780649
553.000000	0.778719
552.000000	0.776526
551.000000	0.774518
550.000000	0.772621
549.000000	0.770729
548.000000	0.769150
547.000000	0.766833
546.000000	0.765184
545.000000	0.763643
544.000000	0.762331
543.000000	0.760900
542.000000	0.759193
541.000000	0.757746
540.000000	0.756502
539.000000	0.755118
538.000000	0.754211
537.000000	0.753304
536.000000	0.752211
535.000000	0.751017
534.000000	0.750339
533.000000	0.749448
532.000000	0.749234
531.000000	0.748213
530.000000	0.747411
529.000000	0.747045
528.000000	0.746542
527.000000	0.746248
526.000000	0.745909
525.000000	0.745325
524.000000	0.745199
523.000000	0.745034
522.000000	0.744829
521.000000	0.744798
520.000000	0.744600
519.000000	0.744094
518.000000	0.743965
517.000000	0.744041
516.000000	0.743898
515.000000	0.743410
514.000000	0.742728
513.000000	0.742482
512.000000	0.742692
511.000000	0.742201
510.000000	0.741627
509.000000	0.741270
508.000000	0.740743
507.000000	0.740559
506.000000	0.739817
505.000000	0.739097
504.000000	0.739050
503.000000	0.738838
502.000000	0.738551
501.000000	0.738203
500.000000	0.738085
499.000000	0.738314
498.000000	0.738049
497.000000	0.737914
496.000000	0.738531
495.000000	0.739352
494.000000	0.739436
493.000000	0.739692
492.000000	0.740012
491.000000	0.740003
490.000000	0.740047
489.000000	0.740643
488.000000	0.741104
487.000000	0.741005
486.000000	0.741078
485.000000	0.740970
484.000000	0.740637
483.000000	0.740522
482.000000	0.740103
481.000000	0.739852
480.000000	0.739503
479.000000	0.738554
478.000000	0.737781
477.000000	0.737175
476.000000	0.736359
475.000000	0.735701
474.000000	0.735007
473.000000	0.734333
472.000000	0.733678
471.000000	0.732713
470.000000	0.731854
469.000000	0.731222
468.000000	0.730175
467.000000	0.729409
466.000000	0.728898
465.000000	0.727928
464.000000	0.727129
463.000000	0.726117
462.000000	0.725395
461.000000	0.725123
460.000000	0.723962
459.000000	0.723445
458.000000	0.723338
457.000000	0.722366
456.000000	0.722207
455.000000	0.721572
454.000000	0.720654
453.000000	0.720099
452.000000	0.720137
451.000000	0.719986
450.000000	0.718866
449.000000	0.718181
448.000000	0.717686
447.000000	0.716957
446.000000	0.716227
445.000000	0.714967
444.000000	0.714410
443.000000	0.714163
442.000000	0.713353
441.000000	0.712631
440.000000	0.711675
439.000000	0.710938
438.000000	0.710657
437.000000	0.709823
436.000000	0.708752
435.000000	0.708154
434.000000	0.707276
433.000000	0.706364
432.000000	0.705341
431.000000	0.704073
430.000000	0.703507
429.000000	0.703144
428.000000	0.702717
427.000000	0.701581
426.000000	0.701037
425.000000	0.700069
424.000000	0.699145
423.000000	0.698481
422.000000	0.697719
421.000000	0.696777
420.000000	0.696181
419.000000	0.695218
418.000000	0.694607
417.000000	0.694047
416.000000	0.693652
415.000000	0.693184
414.000000	0.692470
413.000000	0.691184
412.000000	0.691380
411.000000	0.691214
410.000000	0.691391
409.000000	0.691475
408.000000	0.692306
407.000000	0.693949
406.000000	0.695881
405.000000	0.698046
404.000000	0.700788
403.000000	0.704554
402.000000	0.709046
401.000000	0.715222
400.000000	0.721650
399.000000	0.729065
398.000000	0.737411
397.000000	0.746855
396.000000	0.757264
395.000000	0.769364
394.000000	0.780726
393.000000	0.795049
392.000000	0.809549
391.000000	0.824817
390.000000	0.839911
389.000000	0.856155
388.000000	0.870720
387.000000	0.885509
386.000000	0.900028
385.000000	0.915397
384.000000	0.928131
383.000000	0.939862
382.000000	0.952069
381.000000	0.963735
380.000000	0.975749
379.000000	0.988307
378.000000	1.004135
377.000000	1.011977
376.000000	1.019952
375.000000	1.030712
374.000000	1.038543
373.000000	1.049304
372.000000	1.054790
371.000000	1.063719
370.000000	1.069229
369.000000	1.076643
368.000000	1.086307
367.000000	1.089819
366.000000	1.098353
365.000000	1.104068
364.000000	1.110648
363.000000	1.115750
362.000000	1.121836
361.000000	1.127662
360.000000	1.132571
359.000000	1.139817
358.000000	1.143438
357.000000	1.146643
356.000000	1.152526
355.000000	1.158104
354.000000	1.160729
353.000000	1.162243
352.000000	1.168325
351.000000	1.171756
350.000000	1.175700
349.000000	1.178061
348.000000	1.178030
347.000000	1.183034
346.000000	1.184278
345.000000	1.186675
344.000000	1.187845
343.000000	1.186620
342.000000	1.190764
341.000000	1.192239
340.000000	1.193536
339.000000	1.193593
338.000000	1.192610
337.000000	1.193060
336.000000	1.193541
335.000000	1.194162
334.000000	1.191810
333.000000	1.190841
332.000000	1.191589
331.000000	1.189734
330.000000	1.193430
329.000000	1.190513
328.000000	1.190231
327.000000	1.187821
326.000000	1.186356
325.000000	1.182986
324.000000	1.184362
323.000000	1.182127
322.000000	1.183560
321.000000	1.180669
320.000000	1.181957
319.000000	1.184596
318.000000	1.187834
317.000000	1.184479
316.000000	1.184065
315.000000	1.179322
314.000000	1.178957
313.000000	1.178527
312.000000	1.177711
311.000000	1.179290
310.000000	1.176202
309.000000	1.176067
308.000000	1.175329
307.000000	1.176334
306.000000	1.173888
305.000000	1.174447
304.000000	1.175831
303.000000	1.173565
302.000000	1.175583
301.000000	1.174794
300.000000	1.173048
299.000000	1.175547
298.000000	1.178219
297.000000	1.179532
296.000000	1.179154
295.000000	1.179615
294.000000	1.179285
293.000000	1.181223
292.000000	1.179472
291.000000	1.181829
290.000000	1.181720
289.000000	1.183123
288.000000	1.183850
287.000000	1.181940
286.000000	1.181606
285.000000	1.182569
284.000000	1.184108
283.000000	1.183574
282.000000	1.183895
281.000000	1.182392
280.000000	1.183579
279.000000	1.183009
278.000000	1.183930
277.000000	1.183184
276.000000	1.180686
275.000000	1.181041
274.000000	1.183235
273.000000	1.183612
272.000000	1.181088
271.000000	1.180442
270.000000	1.182174
269.000000	1.180330
268.000000	1.179368
267.000000	1.180404
266.000000	1.180346
265.000000	1.178920
264.000000	1.179500
263.000000	1.180068
262.000000	1.180083
261.000000	1.180431
260.000000	1.180455
259.000000	1.179756
258.000000	1.180818
257.000000	1.181684
256.000000	1.182363
255.000000	1.182777
254.000000	1.183151
253.000000	1.185151
252.000000	1.185738
251.000000	1.185183
250.000000	1.185758
249.000000	1.186820
248.000000	1.186807
247.000000	1.185720
246.000000	1.185259
245.000000	1.186978
244.000000	1.187786
243.000000	1.187024
242.000000	1.186432
241.000000	1.184338
240.000000	1.183095
239.000000	1.182561
238.000000	1.181627
237.000000	1.181007
236.000000	1.179906
235.000000	1.176408
234.000000	1.174128
233.000000	1.172932
232.000000	1.170731
231.000000	1.167932
230.000000	1.165840
229.000000	1.164532
228.000000	1.161179
227.000000	1.156402
226.000000	1.154971
225.000000	1.152280
224.000000	1.148408
223.000000	1.145088
222.000000	1.143544
221.000000	1.140148
220.000000	1.137479
219.000000	1.135314
218.000000	1.131104
217.000000	1.129271
216.000000	1.127077
215.000000	1.125348
214.000000	1.124197
213.000000	1.121433
212.000000	1.117698
211.000000	1.114160
210.000000	1.111579
209.000000	1.108034
208.000000	1.105346
207.000000	1.103652
206.000000	1.100195
205.000000	1.094391
204.000000	1.090671
203.000000	1.087763
202.000000	1.081039
201.000000	1.075763
200.000000	1.072037
199.000000	1.068611
198.000000	1.065798
197.000000	1.060494
196.000000	1.051741
195.000000	1.045963
194.000000	1.038946
193.000000	1.036397
192.000000	1.031051
191.000000	1.020818
190.000000	0.993781
189.000000	0.926219
188.000000	0.783315
187.000000	0.525049
186.000000	0.149096
185.000000	0.003107
184.000000	-0.007045
183.000000	0.021290
182.000000	0.022914
181.000000	0.021124
180.000000	-0.006129
179.000000	0.000944
178.000000	0.001568
177.000000	-0.014523
176.000000	-0.013035
175.000000	0.034288
