PE UV       SUBTECH     SPECTRUM    ASCII       PEDS        4.00        
   -1
02.Sample.Raw.asc
24/04/18
16:01:50.00
24/04/18
16:01:50.00
Stefan Simis
Caruba_DGC-3_Digital_Grey_Card_ddq
175.000000
1
Lambda 1050
1050L1807051
PerkinElmer UV WinLab 6.4.0.973 / 2.02.06 Lambda 900 UV/VIS/NIR, Jan 28 2016 16:58:34

0
0
3350/servo 860.8/2
0
0
UV/VIS
1
1
1
RBeamAtt,SBeamAtt,150mm sphere / downward view, WB InGaAs Detector
0
0
0
0
Program
Program
3350/servo 860.8/2
3350/0.08 860.8/0.08
3350/0.08 860.8/0.08
0
1.00
 
 
 
0
 
860.8
319.2
860.8
Front
100
 
S:100 R:100
 
0
0
0
 
0
 
 
 
0
 
 
0
0
0
0
0
 
 
 
 
0
0


0
0
#HDR
-1
-1
#GR
nm
A
1.0
0.0
2500.000000
-1.000000
2326
8
10.000000
-0.043153
#DATA
2500.000000	1.554928
2499.000000	0.325569
2498.000000	0.229503
2497.000000	0.312343
2496.000000	1.259024
2495.000000	10.000000
2494.000000	0.735836
2493.000000	0.854007
2492.000000	10.000000
2491.000000	10.000000
2490.000000	10.000000
2489.000000	10.000000
2488.000000	0.370815
2487.000000	1.468605
2486.000000	10.000000
2485.000000	1.376401
2484.000000	10.000000
2483.000000	0.679298
2482.000000	0.872049
2481.000000	10.000000
2480.000000	1.505171
2479.000000	1.158005
2478.000000	0.733297
2477.000000	0.570476
2476.000000	1.159108
2475.000000	10.000000
2474.000000	0.685187
2473.000000	0.923404
2472.000000	1.264248
2471.000000	0.888348
2470.000000	10.000000
2469.000000	10.000000
2468.000000	0.801256
2467.000000	1.123118
2466.000000	0.832869
2465.000000	1.241530
2464.000000	10.000000
2463.000000	0.941422
2462.000000	0.987089
2461.000000	0.981169
2460.000000	1.758786
2459.000000	10.000000
2458.000000	2.940511
2457.000000	0.670348
2456.000000	1.014255
2455.000000	1.406277
2454.000000	0.902185
2453.000000	0.881942
2452.000000	0.896274
2451.000000	0.800772
2450.000000	1.221619
2449.000000	1.168929
2448.000000	0.839021
2447.000000	0.946452
2446.000000	0.961635
2445.000000	1.020501
2444.000000	1.703760
2443.000000	1.037581
2442.000000	1.022576
2441.000000	1.254632
2440.000000	1.167105
2439.000000	1.556545
2438.000000	1.373224
2437.000000	0.809033
2436.000000	0.922536
2435.000000	1.251473
2434.000000	0.943244
2433.000000	1.084857
2432.000000	1.148998
2431.000000	1.014749
2430.000000	1.293876
2429.000000	1.337549
2428.000000	0.991043
2427.000000	0.979948
2426.000000	1.023609
2425.000000	1.132318
2424.000000	1.337418
2423.000000	0.997824
2422.000000	0.890502
2421.000000	1.014185
2420.000000	0.997091
2419.000000	1.069799
2418.000000	1.083780
2417.000000	0.813418
2416.000000	0.848621
2415.000000	1.030860
2414.000000	0.986711
2413.000000	0.965982
2412.000000	0.915378
2411.000000	0.950541
2410.000000	1.169690
2409.000000	1.321398
2408.000000	1.086600
2407.000000	0.962248
2406.000000	0.874286
2405.000000	1.022431
2404.000000	1.326794
2403.000000	1.177497
2402.000000	0.998217
2401.000000	0.953468
2400.000000	0.917809
2399.000000	1.063660
2398.000000	1.132777
2397.000000	0.960035
2396.000000	0.938828
2395.000000	0.996581
2394.000000	1.084605
2393.000000	1.089310
2392.000000	0.889140
2391.000000	0.859537
2390.000000	1.116825
2389.000000	1.208606
2388.000000	1.034104
2387.000000	1.010654
2386.000000	0.920907
2385.000000	1.011757
2384.000000	1.296576
2383.000000	1.083650
2382.000000	0.935308
2381.000000	0.938893
2380.000000	0.904758
2379.000000	1.011247
2378.000000	1.127170
2377.000000	0.978349
2376.000000	0.983924
2375.000000	1.056501
2374.000000	1.112459
2373.000000	1.148936
2372.000000	1.058319
2371.000000	0.972448
2370.000000	1.008825
2369.000000	1.095931
2368.000000	1.092830
2367.000000	1.044850
2366.000000	0.902725
2365.000000	0.950179
2364.000000	1.114270
2363.000000	1.067883
2362.000000	1.078092
2361.000000	1.002734
2360.000000	0.941135
2359.000000	1.072629
2358.000000	1.093408
2357.000000	1.072343
2356.000000	1.061749
2355.000000	0.953783
2354.000000	1.040386
2353.000000	1.346641
2352.000000	1.098068
2351.000000	0.938558
2350.000000	1.021819
2349.000000	1.019202
2348.000000	1.055819
2347.000000	1.041551
2346.000000	0.941700
2345.000000	0.989197
2344.000000	1.021586
2343.000000	1.008613
2342.000000	1.021770
2341.000000	0.907510
2340.000000	0.907843
2339.000000	1.017688
2338.000000	1.080938
2337.000000	1.053643
2336.000000	1.042717
2335.000000	0.940536
2334.000000	0.998820
2333.000000	1.095660
2332.000000	1.017285
2331.000000	0.969762
2330.000000	0.988136
2329.000000	1.047584
2328.000000	1.182964
2327.000000	1.065132
2326.000000	0.964365
2325.000000	1.016607
2324.000000	0.951096
2323.000000	1.065429
2322.000000	1.119535
2321.000000	0.912464
2320.000000	0.928661
2319.000000	1.009591
2318.000000	1.012309
2317.000000	1.140243
2316.000000	1.014914
2315.000000	0.936642
2314.000000	1.013207
2313.000000	1.055590
2312.000000	1.009829
2311.000000	0.980824
2310.000000	0.927496
2309.000000	0.959950
2308.000000	1.073136
2307.000000	1.013037
2306.000000	1.003912
2305.000000	1.004117
2304.000000	0.953177
2303.000000	1.018175
2302.000000	1.050966
2301.000000	0.974514
2300.000000	1.024578
2299.000000	1.019002
2298.000000	1.000969
2297.000000	1.046395
2296.000000	0.956070
2295.000000	0.916233
2294.000000	1.037327
2293.000000	1.021836
2292.000000	1.036762
2291.000000	1.111899
2290.000000	0.977825
2289.000000	0.974490
2288.000000	1.048642
2287.000000	1.033607
2286.000000	1.026762
2285.000000	1.042651
2284.000000	0.975476
2283.000000	1.037189
2282.000000	1.064398
2281.000000	0.975655
2280.000000	0.959601
2279.000000	0.920036
2278.000000	1.008639
2277.000000	1.113983
2276.000000	1.027722
2275.000000	1.021168
2274.000000	1.002808
2273.000000	0.947522
2272.000000	1.085394
2271.000000	1.060030
2270.000000	0.955383
2269.000000	1.009889
2268.000000	1.068984
2267.000000	1.028287
2266.000000	1.074096
2265.000000	1.003716
2264.000000	0.944614
2263.000000	0.996694
2262.000000	1.010276
2261.000000	1.031648
2260.000000	1.042874
2259.000000	0.917483
2258.000000	1.011182
2257.000000	1.049700
2256.000000	1.007996
2255.000000	1.026085
2254.000000	0.959335
2253.000000	0.949212
2252.000000	1.070120
2251.000000	1.067569
2250.000000	0.996258
2249.000000	1.013463
2248.000000	0.950611
2247.000000	1.057486
2246.000000	1.067967
2245.000000	0.983487
2244.000000	0.960784
2243.000000	1.001560
2242.000000	0.960248
2241.000000	1.062596
2240.000000	1.004589
2239.000000	0.915624
2238.000000	0.978955
2237.000000	1.015285
2236.000000	0.994035
2235.000000	0.984687
2234.000000	0.923286
2233.000000	0.943087
2232.000000	1.006278
2231.000000	1.010509
2230.000000	1.019715
2229.000000	0.994473
2228.000000	0.919573
2227.000000	0.966339
2226.000000	1.027818
2225.000000	0.967975
2224.000000	0.963032
2223.000000	1.001602
2222.000000	0.990416
2221.000000	1.045641
2220.000000	1.036510
2219.000000	0.997976
2218.000000	1.015609
2217.000000	0.987058
2216.000000	1.018894
2215.000000	1.009157
2214.000000	0.933421
2213.000000	0.957529
2212.000000	1.018631
2211.000000	1.018292
2210.000000	1.030046
2209.000000	1.020727
2208.000000	0.951020
2207.000000	0.993103
2206.000000	1.034349
2205.000000	1.012978
2204.000000	1.002021
2203.000000	0.966714
2202.000000	0.965955
2201.000000	1.050582
2200.000000	0.983247
2199.000000	0.967825
2198.000000	0.994442
2197.000000	0.962500
2196.000000	0.985535
2195.000000	1.008777
2194.000000	0.965249
2193.000000	1.001150
2192.000000	1.010050
2191.000000	1.017036
2190.000000	1.060800
2189.000000	0.997910
2188.000000	0.964242
2187.000000	0.998314
2186.000000	1.024288
2185.000000	1.017339
2184.000000	0.978094
2183.000000	0.938368
2182.000000	0.973756
2181.000000	1.014306
2180.000000	0.996572
2179.000000	0.979366
2178.000000	0.941455
2177.000000	0.922316
2176.000000	0.985948
2175.000000	1.023394
2174.000000	0.979898
2173.000000	0.979550
2172.000000	0.970641
2171.000000	1.015846
2170.000000	1.071978
2169.000000	1.028391
2168.000000	0.982895
2167.000000	0.951652
2166.000000	0.929582
2165.000000	1.013077
2164.000000	1.017304
2163.000000	0.940861
2162.000000	0.948674
2161.000000	0.987936
2160.000000	0.989258
2159.000000	0.983175
2158.000000	0.945601
2157.000000	0.955922
2156.000000	1.002217
2155.000000	0.995100
2154.000000	1.004450
2153.000000	0.993455
2152.000000	0.949604
2151.000000	0.980828
2150.000000	1.022299
2149.000000	1.011275
2148.000000	0.988152
2147.000000	0.961826
2146.000000	0.965327
2145.000000	0.999152
2144.000000	0.984004
2143.000000	0.962880
2142.000000	0.951961
2141.000000	0.944450
2140.000000	1.004341
2139.000000	1.021580
2138.000000	0.957385
2137.000000	0.941546
2136.000000	0.952247
2135.000000	0.985325
2134.000000	1.026370
2133.000000	0.988807
2132.000000	0.954155
2131.000000	0.969555
2130.000000	0.994580
2129.000000	1.027988
2128.000000	1.012591
2127.000000	0.973280
2126.000000	0.980408
2125.000000	0.988463
2124.000000	1.006237
2123.000000	1.025795
2122.000000	0.977612
2121.000000	0.962852
2120.000000	1.022011
2119.000000	1.038201
2118.000000	1.023602
2117.000000	0.982612
2116.000000	0.946740
2115.000000	0.971164
2114.000000	1.010886
2113.000000	1.004945
2112.000000	0.997964
2111.000000	0.976974
2110.000000	0.965421
2109.000000	1.004494
2108.000000	0.995900
2107.000000	0.962787
2106.000000	0.962034
2105.000000	0.947113
2104.000000	0.979474
2103.000000	0.993535
2102.000000	0.961813
2101.000000	0.956289
2100.000000	0.978545
2099.000000	0.997907
2098.000000	1.018818
2097.000000	0.979437
2096.000000	0.949058
2095.000000	0.978362
2094.000000	0.990910
2093.000000	0.993706
2092.000000	1.013422
2091.000000	0.959522
2090.000000	0.968158
2089.000000	1.009426
2088.000000	1.006505
2087.000000	1.000202
2086.000000	0.979776
2085.000000	0.965938
2084.000000	1.022481
2083.000000	1.026643
2082.000000	0.989922
2081.000000	0.980642
2080.000000	0.969460
2079.000000	0.970220
2078.000000	1.037187
2077.000000	0.993026
2076.000000	0.973489
2075.000000	0.987648
2074.000000	0.981177
2073.000000	1.022331
2072.000000	1.017492
2071.000000	0.969166
2070.000000	0.971024
2069.000000	0.973845
2068.000000	0.994477
2067.000000	0.997147
2066.000000	0.975766
2065.000000	0.979325
2064.000000	0.978824
2063.000000	0.976384
2062.000000	0.988871
2061.000000	0.987113
2060.000000	0.953171
2059.000000	0.973934
2058.000000	0.994563
2057.000000	0.980765
2056.000000	0.993902
2055.000000	0.959588
2054.000000	0.971340
2053.000000	1.016070
2052.000000	1.001955
2051.000000	0.986360
2050.000000	0.999440
2049.000000	0.980113
2048.000000	0.985462
2047.000000	1.016144
2046.000000	0.976583
2045.000000	0.969167
2044.000000	0.989662
2043.000000	0.986631
2042.000000	1.019261
2041.000000	0.990865
2040.000000	0.965408
2039.000000	0.979020
2038.000000	0.971597
2037.000000	0.996963
2036.000000	0.989068
2035.000000	0.971155
2034.000000	0.962138
2033.000000	0.973606
2032.000000	0.973793
2031.000000	1.003616
2030.000000	0.984060
2029.000000	0.961955
2028.000000	0.993642
2027.000000	0.992712
2026.000000	0.986536
2025.000000	0.975259
2024.000000	0.958163
2023.000000	0.964985
2022.000000	1.000162
2021.000000	0.985865
2020.000000	0.995345
2019.000000	0.970801
2018.000000	0.970540
2017.000000	0.981028
2016.000000	1.003276
2015.000000	0.981883
2014.000000	0.986113
2013.000000	0.981539
2012.000000	0.985969
2011.000000	1.010659
2010.000000	0.984409
2009.000000	0.971758
2008.000000	0.986712
2007.000000	0.971958
2006.000000	0.987691
2005.000000	0.998083
2004.000000	0.978801
2003.000000	0.977953
2002.000000	0.987188
2001.000000	0.990199
2000.000000	1.006460
1999.000000	0.977411
1998.000000	0.980174
1997.000000	0.987957
1996.000000	0.978507
1995.000000	0.987088
1994.000000	0.990042
1993.000000	0.974488
1992.000000	0.992605
1991.000000	0.995840
1990.000000	0.988913
1989.000000	0.992875
1988.000000	0.981023
1987.000000	0.979756
1986.000000	1.002333
1985.000000	0.994191
1984.000000	0.990201
1983.000000	0.982635
1982.000000	0.969795
1981.000000	0.978369
1980.000000	0.998409
1979.000000	0.991494
1978.000000	0.988267
1977.000000	0.991181
1976.000000	0.988002
1975.000000	0.992160
1974.000000	0.986136
1973.000000	0.972435
1972.000000	0.977239
1971.000000	0.981768
1970.000000	1.000166
1969.000000	1.010890
1968.000000	0.988950
1967.000000	0.976504
1966.000000	0.986889
1965.000000	0.975962
1964.000000	0.987944
1963.000000	0.989778
1962.000000	0.981548
1961.000000	0.984875
1960.000000	0.982457
1959.000000	0.988363
1958.000000	0.997558
1957.000000	0.979754
1956.000000	0.979543
1955.000000	0.987987
1954.000000	0.995150
1953.000000	1.001192
1952.000000	0.995928
1951.000000	0.978351
1950.000000	0.993290
1949.000000	1.003505
1948.000000	1.000654
1947.000000	0.994593
1946.000000	0.982360
1945.000000	0.991665
1944.000000	1.012997
1943.000000	0.996264
1942.000000	0.987754
1941.000000	0.986766
1940.000000	0.979123
1939.000000	0.990765
1938.000000	1.002300
1937.000000	0.993164
1936.000000	0.991073
1935.000000	0.985365
1934.000000	0.992613
1933.000000	1.011449
1932.000000	0.994718
1931.000000	0.984903
1930.000000	0.993049
1929.000000	0.991569
1928.000000	1.011084
1927.000000	1.003684
1926.000000	0.976469
1925.000000	0.979156
1924.000000	0.988253
1923.000000	1.005661
1922.000000	1.018473
1921.000000	0.992901
1920.000000	0.987431
1919.000000	1.002063
1918.000000	0.998898
1917.000000	1.006939
1916.000000	0.996615
1915.000000	0.973455
1914.000000	0.976426
1913.000000	0.992152
1912.000000	0.993130
1911.000000	0.985047
1910.000000	0.975624
1909.000000	0.973699
1908.000000	0.990865
1907.000000	0.998234
1906.000000	0.991907
1905.000000	0.976799
1904.000000	0.975206
1903.000000	0.996300
1902.000000	1.006106
1901.000000	0.998731
1900.000000	0.999210
1899.000000	0.986656
1898.000000	0.980994
1897.000000	0.994786
1896.000000	0.983190
1895.000000	0.977938
1894.000000	0.981418
1893.000000	0.971964
1892.000000	0.981614
1891.000000	0.993588
1890.000000	0.978107
1889.000000	0.975678
1888.000000	0.974653
1887.000000	0.979257
1886.000000	0.994682
1885.000000	0.986189
1884.000000	0.976879
1883.000000	0.980412
1882.000000	0.984488
1881.000000	0.993829
1880.000000	0.990573
1879.000000	0.971560
1878.000000	0.978716
1877.000000	0.989129
1876.000000	0.988211
1875.000000	0.993091
1874.000000	0.977627
1873.000000	0.971801
1872.000000	0.983887
1871.000000	0.989059
1870.000000	0.995365
1869.000000	0.990692
1868.000000	0.972599
1867.000000	0.979423
1866.000000	0.989150
1865.000000	0.990260
1864.000000	0.987876
1863.000000	0.978159
1862.000000	0.978050
1861.000000	0.987744
1860.000000	0.990477
1859.000000	0.987121
1858.000000	0.990104
1857.000000	0.974465
1856.000000	0.975843
1855.000000	0.988998
1854.000000	0.982807
1853.000000	0.982955
1852.000000	0.976826
1851.000000	0.974493
1850.000000	0.990209
1849.000000	0.990481
1848.000000	0.980798
1847.000000	0.981382
1846.000000	0.974244
1845.000000	0.977870
1844.000000	0.989406
1843.000000	0.980074
1842.000000	0.978321
1841.000000	0.982643
1840.000000	0.975322
1839.000000	0.986188
1838.000000	0.983659
1837.000000	0.975209
1836.000000	0.980904
1835.000000	0.982368
1834.000000	0.984130
1833.000000	0.989722
1832.000000	0.972149
1831.000000	0.973234
1830.000000	0.985243
1829.000000	0.984832
1828.000000	0.983189
1827.000000	0.984054
1826.000000	0.974682
1825.000000	0.978145
1824.000000	0.987085
1823.000000	0.980991
1822.000000	0.976338
1821.000000	0.974829
1820.000000	0.977913
1819.000000	0.988141
1818.000000	0.979146
1817.000000	0.980631
1816.000000	0.982113
1815.000000	0.977072
1814.000000	0.981785
1813.000000	0.990033
1812.000000	0.983941
1811.000000	0.978786
1810.000000	0.976764
1809.000000	0.978094
1808.000000	0.985520
1807.000000	0.980458
1806.000000	0.976828
1805.000000	0.976538
1804.000000	0.971864
1803.000000	0.980124
1802.000000	0.983025
1801.000000	0.975807
1800.000000	0.978072
1799.000000	0.974288
1798.000000	0.973437
1797.000000	0.986920
1796.000000	0.983616
1795.000000	0.982820
1794.000000	0.979099
1793.000000	0.974663
1792.000000	0.980216
1791.000000	0.984301
1790.000000	0.973430
1789.000000	0.977997
1788.000000	0.981856
1787.000000	0.984655
1786.000000	0.988344
1785.000000	0.980745
1784.000000	0.975752
1783.000000	0.979785
1782.000000	0.974744
1781.000000	0.986198
1780.000000	0.988828
1779.000000	0.973180
1778.000000	0.972345
1777.000000	0.978837
1776.000000	0.977149
1775.000000	0.986768
1774.000000	0.974220
1773.000000	0.972108
1772.000000	0.977751
1771.000000	0.982506
1770.000000	0.981333
1769.000000	0.987184
1768.000000	0.970864
1767.000000	0.973751
1766.000000	0.982646
1765.000000	0.980142
1764.000000	0.982619
1763.000000	0.979999
1762.000000	0.974357
1761.000000	0.981227
1760.000000	0.980366
1759.000000	0.977757
1758.000000	0.974565
1757.000000	0.972085
1756.000000	0.971730
1755.000000	0.989195
1754.000000	0.979442
1753.000000	0.978332
1752.000000	0.981720
1751.000000	0.968815
1750.000000	0.975800
1749.000000	0.979136
1748.000000	0.980307
1747.000000	0.976405
1746.000000	0.970002
1745.000000	0.972106
1744.000000	0.981951
1743.000000	0.972426
1742.000000	0.968047
1741.000000	0.974119
1740.000000	0.973828
1739.000000	0.979186
1738.000000	0.981730
1737.000000	0.976645
1736.000000	0.975008
1735.000000	0.974663
1734.000000	0.970878
1733.000000	0.985514
1732.000000	0.976475
1731.000000	0.974406
1730.000000	0.980875
1729.000000	0.976744
1728.000000	0.978053
1727.000000	0.978906
1726.000000	0.968478
1725.000000	0.970794
1724.000000	0.971684
1723.000000	0.973183
1722.000000	0.981776
1721.000000	0.977435
1720.000000	0.969269
1719.000000	0.973760
1718.000000	0.968695
1717.000000	0.972716
1716.000000	0.975360
1715.000000	0.969134
1714.000000	0.971472
1713.000000	0.975564
1712.000000	0.976892
1711.000000	0.980235
1710.000000	0.975327
1709.000000	0.970421
1708.000000	0.975890
1707.000000	0.973261
1706.000000	0.977137
1705.000000	0.976640
1704.000000	0.963764
1703.000000	0.964004
1702.000000	0.974179
1701.000000	0.973694
1700.000000	0.971043
1699.000000	0.970167
1698.000000	0.968548
1697.000000	0.972114
1696.000000	0.969575
1695.000000	0.970728
1694.000000	0.973726
1693.000000	0.967024
1692.000000	0.966138
1691.000000	0.972775
1690.000000	0.974342
1689.000000	0.973513
1688.000000	0.969191
1687.000000	0.967090
1686.000000	0.973830
1685.000000	0.976947
1684.000000	0.972122
1683.000000	0.969488
1682.000000	0.966068
1681.000000	0.969335
1680.000000	0.971630
1679.000000	0.971696
1678.000000	0.973082
1677.000000	0.971494
1676.000000	0.966516
1675.000000	0.971143
1674.000000	0.972923
1673.000000	0.970138
1672.000000	0.969725
1671.000000	0.966774
1670.000000	0.966756
1669.000000	0.969943
1668.000000	0.973644
1667.000000	0.971608
1666.000000	0.966588
1665.000000	0.969806
1664.000000	0.971221
1663.000000	0.973055
1662.000000	0.975266
1661.000000	0.969937
1660.000000	0.966251
1659.000000	0.967313
1658.000000	0.971174
1657.000000	0.974735
1656.000000	0.969104
1655.000000	0.963482
1654.000000	0.964463
1653.000000	0.965371
1652.000000	0.969473
1651.000000	0.973639
1650.000000	0.966122
1649.000000	0.962433
1648.000000	0.965715
1647.000000	0.968629
1646.000000	0.970391
1645.000000	0.968101
1644.000000	0.962998
1643.000000	0.965953
1642.000000	0.968982
1641.000000	0.967332
1640.000000	0.969956
1639.000000	0.965970
1638.000000	0.963508
1637.000000	0.967463
1636.000000	0.970074
1635.000000	0.967869
1634.000000	0.963479
1633.000000	0.960668
1632.000000	0.964072
1631.000000	0.964930
1630.000000	0.964497
1629.000000	0.966700
1628.000000	0.964067
1627.000000	0.960786
1626.000000	0.962592
1625.000000	0.965629
1624.000000	0.967230
1623.000000	0.965921
1622.000000	0.961236
1621.000000	0.963344
1620.000000	0.966102
1619.000000	0.966729
1618.000000	0.966871
1617.000000	0.962802
1616.000000	0.961439
1615.000000	0.964864
1614.000000	0.966202
1613.000000	0.967338
1612.000000	0.966661
1611.000000	0.960129
1610.000000	0.960520
1609.000000	0.966224
1608.000000	0.966485
1607.000000	0.965673
1606.000000	0.962951
1605.000000	0.958902
1604.000000	0.962311
1603.000000	0.965118
1602.000000	0.967077
1601.000000	0.964292
1600.000000	0.960882
1599.000000	0.960691
1598.000000	0.961796
1597.000000	0.962755
1596.000000	0.967141
1595.000000	0.965012
1594.000000	0.960266
1593.000000	0.958313
1592.000000	0.961510
1591.000000	0.961608
1590.000000	0.961648
1589.000000	0.958140
1588.000000	0.957647
1587.000000	0.963412
1586.000000	0.964530
1585.000000	0.961047
1584.000000	0.962836
1583.000000	0.956405
1582.000000	0.957354
1581.000000	0.961937
1580.000000	0.960387
1579.000000	0.960591
1578.000000	0.959734
1577.000000	0.957086
1576.000000	0.959945
1575.000000	0.958984
1574.000000	0.960209
1573.000000	0.961149
1572.000000	0.959504
1571.000000	0.956836
1570.000000	0.960862
1569.000000	0.961155
1568.000000	0.960114
1567.000000	0.959658
1566.000000	0.958314
1565.000000	0.958456
1564.000000	0.962691
1563.000000	0.959883
1562.000000	0.958518
1561.000000	0.958057
1560.000000	0.954977
1559.000000	0.959252
1558.000000	0.961568
1557.000000	0.956069
1556.000000	0.955917
1555.000000	0.953419
1554.000000	0.953344
1553.000000	0.960792
1552.000000	0.959236
1551.000000	0.955751
1550.000000	0.953693
1549.000000	0.952156
1548.000000	0.956899
1547.000000	0.961533
1546.000000	0.956300
1545.000000	0.956351
1544.000000	0.953073
1543.000000	0.952947
1542.000000	0.958846
1541.000000	0.957913
1540.000000	0.954248
1539.000000	0.957259
1538.000000	0.952609
1537.000000	0.952735
1536.000000	0.959339
1535.000000	0.956978
1534.000000	0.952754
1533.000000	0.954480
1532.000000	0.954664
1531.000000	0.955081
1530.000000	0.956451
1529.000000	0.952440
1528.000000	0.954915
1527.000000	0.951674
1526.000000	0.946270
1525.000000	0.955013
1524.000000	0.955489
1523.000000	0.950047
1522.000000	0.953670
1521.000000	0.950069
1520.000000	0.952029
1519.000000	0.958634
1518.000000	0.954862
1517.000000	0.950632
1516.000000	0.949468
1515.000000	0.947688
1514.000000	0.952170
1513.000000	0.956837
1512.000000	0.951325
1511.000000	0.950790
1510.000000	0.949154
1509.000000	0.947114
1508.000000	0.954293
1507.000000	0.951967
1506.000000	0.949476
1505.000000	0.950163
1504.000000	0.948339
1503.000000	0.947978
1502.000000	0.953354
1501.000000	0.949220
1500.000000	0.949108
1499.000000	0.949448
1498.000000	0.948599
1497.000000	0.951465
1496.000000	0.952389
1495.000000	0.947755
1494.000000	0.949353
1493.000000	0.948461
1492.000000	0.946534
1491.000000	0.950815
1490.000000	0.948648
1489.000000	0.948627
1488.000000	0.950187
1487.000000	0.945773
1486.000000	0.947334
1485.000000	0.950245
1484.000000	0.947410
1483.000000	0.946692
1482.000000	0.948931
1481.000000	0.945635
1480.000000	0.948867
1479.000000	0.950158
1478.000000	0.946764
1477.000000	0.946321
1476.000000	0.945090
1475.000000	0.943918
1474.000000	0.948522
1473.000000	0.945645
1472.000000	0.943413
1471.000000	0.942802
1470.000000	0.941678
1469.000000	0.944345
1468.000000	0.946551
1467.000000	0.943918
1466.000000	0.944570
1465.000000	0.943859
1464.000000	0.941373
1463.000000	0.944688
1462.000000	0.946055
1461.000000	0.943710
1460.000000	0.943522
1459.000000	0.941211
1458.000000	0.940055
1457.000000	0.942617
1456.000000	0.944144
1455.000000	0.941465
1454.000000	0.940477
1453.000000	0.940439
1452.000000	0.942608
1451.000000	0.943983
1450.000000	0.942173
1449.000000	0.943175
1448.000000	0.941017
1447.000000	0.939767
1446.000000	0.943003
1445.000000	0.943426
1444.000000	0.942450
1443.000000	0.940852
1442.000000	0.937027
1441.000000	0.936958
1440.000000	0.940090
1439.000000	0.940118
1438.000000	0.941442
1437.000000	0.940246
1436.000000	0.936350
1435.000000	0.938112
1434.000000	0.940222
1433.000000	0.941158
1432.000000	0.941527
1431.000000	0.938753
1430.000000	0.937066
1429.000000	0.939239
1428.000000	0.939780
1427.000000	0.939277
1426.000000	0.938539
1425.000000	0.936705
1424.000000	0.935956
1423.000000	0.936383
1422.000000	0.937436
1421.000000	0.937375
1420.000000	0.935426
1419.000000	0.934108
1418.000000	0.935618
1417.000000	0.936662
1416.000000	0.937790
1415.000000	0.936254
1414.000000	0.931623
1413.000000	0.931701
1412.000000	0.934635
1411.000000	0.934796
1410.000000	0.936258
1409.000000	0.934780
1408.000000	0.930987
1407.000000	0.933075
1406.000000	0.933820
1405.000000	0.933388
1404.000000	0.934585
1403.000000	0.933340
1402.000000	0.932172
1401.000000	0.932223
1400.000000	0.931724
1399.000000	0.933900
1398.000000	0.934583
1397.000000	0.931522
1396.000000	0.928286
1395.000000	0.928506
1394.000000	0.930206
1393.000000	0.932382
1392.000000	0.931085
1391.000000	0.928601
1390.000000	0.928347
1389.000000	0.927652
1388.000000	0.930273
1387.000000	0.934387
1386.000000	0.930377
1385.000000	0.927088
1384.000000	0.928013
1383.000000	0.928347
1382.000000	0.929701
1381.000000	0.930966
1380.000000	0.928332
1379.000000	0.926996
1378.000000	0.925951
1377.000000	0.926262
1376.000000	0.928763
1375.000000	0.928626
1374.000000	0.926390
1373.000000	0.927602
1372.000000	0.925833
1371.000000	0.924940
1370.000000	0.927643
1369.000000	0.927619
1368.000000	0.927794
1367.000000	0.926595
1366.000000	0.923685
1365.000000	0.926456
1364.000000	0.925965
1363.000000	0.923464
1362.000000	0.926205
1361.000000	0.924136
1360.000000	0.922389
1359.000000	0.925560
1358.000000	0.925452
1357.000000	0.925310
1356.000000	0.925206
1355.000000	0.921821
1354.000000	0.922275
1353.000000	0.926578
1352.000000	0.924808
1351.000000	0.923260
1350.000000	0.922663
1349.000000	0.919165
1348.000000	0.920435
1347.000000	0.923100
1346.000000	0.922851
1345.000000	0.922567
1344.000000	0.918925
1343.000000	0.918569
1342.000000	0.920737
1341.000000	0.920758
1340.000000	0.921840
1339.000000	0.920733
1338.000000	0.919538
1337.000000	0.920875
1336.000000	0.920545
1335.000000	0.920574
1334.000000	0.921468
1333.000000	0.920990
1332.000000	0.917504
1331.000000	0.918487
1330.000000	0.917543
1329.000000	0.919499
1328.000000	0.920832
1327.000000	0.918524
1326.000000	0.916988
1325.000000	0.918394
1324.000000	0.917891
1323.000000	0.919337
1322.000000	0.920019
1321.000000	0.917008
1320.000000	0.916481
1319.000000	0.918179
1318.000000	0.915960
1317.000000	0.918138
1316.000000	0.918076
1315.000000	0.915577
1314.000000	0.915514
1313.000000	0.915575
1312.000000	0.914302
1311.000000	0.917589
1310.000000	0.916200
1309.000000	0.913916
1308.000000	0.913925
1307.000000	0.913187
1306.000000	0.915113
1305.000000	0.916546
1304.000000	0.914280
1303.000000	0.913629
1302.000000	0.913025
1301.000000	0.910707
1300.000000	0.913494
1299.000000	0.914563
1298.000000	0.911832
1297.000000	0.912945
1296.000000	0.909877
1295.000000	0.911099
1294.000000	0.913895
1293.000000	0.912637
1292.000000	0.911612
1291.000000	0.910728
1290.000000	0.908180
1289.000000	0.909670
1288.000000	0.911386
1287.000000	0.910759
1286.000000	0.910965
1285.000000	0.908065
1284.000000	0.906924
1283.000000	0.910150
1282.000000	0.910939
1281.000000	0.910870
1280.000000	0.910693
1279.000000	0.909234
1278.000000	0.908607
1277.000000	0.910142
1276.000000	0.907706
1275.000000	0.909292
1274.000000	0.908967
1273.000000	0.906437
1272.000000	0.906307
1271.000000	0.908631
1270.000000	0.906128
1269.000000	0.909852
1268.000000	0.908627
1267.000000	0.904150
1266.000000	0.905941
1265.000000	0.905823
1264.000000	0.905783
1263.000000	0.908813
1262.000000	0.906274
1261.000000	0.903300
1260.000000	0.903933
1259.000000	0.902301
1258.000000	0.904594
1257.000000	0.905074
1256.000000	0.902922
1255.000000	0.902355
1254.000000	0.903267
1253.000000	0.902740
1252.000000	0.905289
1251.000000	0.906138
1250.000000	0.902679
1249.000000	0.904083
1248.000000	0.901251
1247.000000	0.901536
1246.000000	0.903830
1245.000000	0.902614
1244.000000	0.902425
1243.000000	0.901325
1242.000000	0.898426
1241.000000	0.899892
1240.000000	0.903123
1239.000000	0.900727
1238.000000	0.900286
1237.000000	0.900098
1236.000000	0.899072
1235.000000	0.900124
1234.000000	0.900079
1233.000000	0.900125
1232.000000	0.900979
1231.000000	0.898327
1230.000000	0.897218
1229.000000	0.899144
1228.000000	0.899775
1227.000000	0.899348
1226.000000	0.898397
1225.000000	0.896689
1224.000000	0.896774
1223.000000	0.897294
1222.000000	0.896756
1221.000000	0.898390
1220.000000	0.897940
1219.000000	0.896258
1218.000000	0.896885
1217.000000	0.896125
1216.000000	0.897666
1215.000000	0.899035
1214.000000	0.896977
1213.000000	0.894451
1212.000000	0.893715
1211.000000	0.894567
1210.000000	0.897087
1209.000000	0.897012
1208.000000	0.893586
1207.000000	0.892871
1206.000000	0.892594
1205.000000	0.892912
1204.000000	0.894480
1203.000000	0.894072
1202.000000	0.893051
1201.000000	0.893709
1200.000000	0.893544
1199.000000	0.893311
1198.000000	0.894423
1197.000000	0.893446
1196.000000	0.892592
1195.000000	0.891652
1194.000000	0.890863
1193.000000	0.892203
1192.000000	0.891791
1191.000000	0.890280
1190.000000	0.891127
1189.000000	0.892219
1188.000000	0.893339
1187.000000	0.891334
1186.000000	0.888821
1185.000000	0.888286
1184.000000	0.888633
1183.000000	0.890310
1182.000000	0.889977
1181.000000	0.888649
1180.000000	0.888618
1179.000000	0.888071
1178.000000	0.887116
1177.000000	0.888232
1176.000000	0.888420
1175.000000	0.888304
1174.000000	0.887816
1173.000000	0.886719
1172.000000	0.887886
1171.000000	0.889606
1170.000000	0.889146
1169.000000	0.887456
1168.000000	0.886003
1167.000000	0.885185
1166.000000	0.886300
1165.000000	0.886637
1164.000000	0.886878
1163.000000	0.887667
1162.000000	0.884878
1161.000000	0.883032
1160.000000	0.884351
1159.000000	0.884661
1158.000000	0.886203
1157.000000	0.886578
1156.000000	0.883872
1155.000000	0.883209
1154.000000	0.883198
1153.000000	0.882723
1152.000000	0.884880
1151.000000	0.883689
1150.000000	0.881393
1149.000000	0.881500
1148.000000	0.880935
1147.000000	0.881496
1146.000000	0.883991
1145.000000	0.881881
1144.000000	0.880698
1143.000000	0.880494
1142.000000	0.880017
1141.000000	0.882549
1140.000000	0.882634
1139.000000	0.880236
1138.000000	0.879993
1137.000000	0.879208
1136.000000	0.877601
1135.000000	0.878059
1134.000000	0.878423
1133.000000	0.880105
1132.000000	0.879928
1131.000000	0.877149
1130.000000	0.877713
1129.000000	0.879114
1128.000000	0.878819
1127.000000	0.878765
1126.000000	0.877358
1125.000000	0.874430
1124.000000	0.876796
1123.000000	0.877067
1122.000000	0.877075
1121.000000	0.878697
1120.000000	0.877117
1119.000000	0.875553
1118.000000	0.876301
1117.000000	0.876078
1116.000000	0.876016
1115.000000	0.876887
1114.000000	0.874197
1113.000000	0.874905
1112.000000	0.874252
1111.000000	0.872791
1110.000000	0.875970
1109.000000	0.876311
1108.000000	0.875703
1107.000000	0.874158
1106.000000	0.873452
1105.000000	0.871760
1104.000000	0.875435
1103.000000	0.874365
1102.000000	0.874417
1101.000000	0.873710
1100.000000	0.870758
1099.000000	0.871943
1098.000000	0.873958
1097.000000	0.873089
1096.000000	0.874055
1095.000000	0.871047
1094.000000	0.869619
1093.000000	0.870551
1092.000000	0.871177
1091.000000	0.872559
1090.000000	0.872512
1089.000000	0.869536
1088.000000	0.866140
1087.000000	0.869543
1086.000000	0.870256
1085.000000	0.873709
1084.000000	0.873159
1083.000000	0.868093
1082.000000	0.868325
1081.000000	0.868285
1080.000000	0.866645
1079.000000	0.868560
1078.000000	0.867742
1077.000000	0.865617
1076.000000	0.866818
1075.000000	0.865137
1074.000000	0.865728
1073.000000	0.869588
1072.000000	0.866327
1071.000000	0.866907
1070.000000	0.867434
1069.000000	0.864074
1068.000000	0.864784
1067.000000	0.868104
1066.000000	0.864840
1065.000000	0.866019
1064.000000	0.864812
1063.000000	0.861121
1062.000000	0.865348
1061.000000	0.865176
1060.000000	0.865097
1059.000000	0.867665
1058.000000	0.863289
1057.000000	0.862352
1056.000000	0.864649
1055.000000	0.860829
1054.000000	0.862333
1053.000000	0.865374
1052.000000	0.861718
1051.000000	0.858834
1050.000000	0.860728
1049.000000	0.860442
1048.000000	0.864547
1047.000000	0.864052
1046.000000	0.858975
1045.000000	0.859516
1044.000000	0.860195
1043.000000	0.858500
1042.000000	0.863536
1041.000000	0.858565
1040.000000	0.861161
1039.000000	0.859561
1038.000000	0.855283
1037.000000	0.858728
1036.000000	0.863769
1035.000000	0.858713
1034.000000	0.858746
1033.000000	0.857184
1032.000000	0.856159
1031.000000	0.857488
1030.000000	0.859664
1029.000000	0.857985
1028.000000	0.863533
1027.000000	0.857962
1026.000000	0.854174
1025.000000	0.856095
1024.000000	0.857227
1023.000000	0.857917
1022.000000	0.858662
1021.000000	0.854739
1020.000000	0.855219
1019.000000	0.854668
1018.000000	0.852728
1017.000000	0.858788
1016.000000	0.860326
1015.000000	0.854022
1014.000000	0.853945
1013.000000	0.850731
1012.000000	0.852168
1011.000000	0.853608
1010.000000	0.853537
1009.000000	0.852885
1008.000000	0.855701
1007.000000	0.851151
1006.000000	0.851852
1005.000000	0.855232
1004.000000	0.853996
1003.000000	0.855437
1002.000000	0.850074
1001.000000	0.848313
1000.000000	0.851792
999.000000	0.849412
998.000000	0.849121
997.000000	0.851881
996.000000	0.850601
995.000000	0.847094
994.000000	0.848486
993.000000	0.846720
992.000000	0.851632
991.000000	0.855056
990.000000	0.845894
989.000000	0.845469
988.000000	0.847173
987.000000	0.845374
986.000000	0.850704
985.000000	0.853644
984.000000	0.848535
983.000000	0.848785
982.000000	0.844468
981.000000	0.844868
980.000000	0.849313
979.000000	0.849330
978.000000	0.848635
977.000000	0.846407
976.000000	0.843689
975.000000	0.844038
974.000000	0.848174
973.000000	0.848017
972.000000	0.849988
971.000000	0.850314
970.000000	0.844445
969.000000	0.842664
968.000000	0.844018
967.000000	0.846066
966.000000	0.849718
965.000000	0.843381
964.000000	0.841945
963.000000	0.843766
962.000000	0.840541
961.000000	0.841936
960.000000	0.845572
959.000000	0.840814
958.000000	0.839877
957.000000	0.837488
956.000000	0.837267
955.000000	0.845005
954.000000	0.846126
953.000000	0.846209
952.000000	0.846190
951.000000	0.840493
950.000000	0.836217
949.000000	0.840071
948.000000	0.840394
947.000000	0.843941
946.000000	0.846301
945.000000	0.842573
944.000000	0.840507
943.000000	0.837277
942.000000	0.836537
941.000000	0.841481
940.000000	0.839802
939.000000	0.836100
938.000000	0.838866
937.000000	0.837044
936.000000	0.838847
935.000000	0.848776
934.000000	0.846625
933.000000	0.838192
932.000000	0.831491
931.000000	0.827107
930.000000	0.828204
929.000000	0.832205
928.000000	0.836276
927.000000	0.839489
926.000000	0.835073
925.000000	0.824481
924.000000	0.828245
923.000000	0.839156
922.000000	0.842348
921.000000	0.846808
920.000000	0.839942
919.000000	0.832096
918.000000	0.837918
917.000000	0.833222
916.000000	0.836230
915.000000	0.846021
914.000000	0.838004
913.000000	0.835431
912.000000	0.833471
911.000000	0.825954
910.000000	0.834936
909.000000	0.839851
908.000000	0.827310
907.000000	0.829359
906.000000	0.827347
905.000000	0.821177
904.000000	0.830040
903.000000	0.839908
902.000000	0.846813
901.000000	0.841347
900.000000	0.819940
899.000000	0.829080
898.000000	0.835092
897.000000	0.834679
896.000000	0.843083
895.000000	0.838712
894.000000	0.825909
893.000000	0.826675
892.000000	0.823873
891.000000	0.833357
890.000000	0.854180
889.000000	0.843071
888.000000	0.832388
887.000000	0.829021
886.000000	0.810928
885.000000	0.824363
884.000000	0.841150
883.000000	0.839725
882.000000	0.849013
881.000000	0.826035
880.000000	0.800174
879.000000	0.817067
878.000000	0.820095
877.000000	0.835444
876.000000	0.842064
875.000000	0.814501
874.000000	0.808482
873.000000	0.821164
872.000000	0.805199
871.000000	0.823470
870.000000	0.842748
869.000000	0.829465
868.000000	0.817452
867.000000	0.813800
866.000000	0.810402
865.000000	0.828644
864.000000	0.829002
863.000000	0.807487
862.000000	0.819813
861.000000	0.819566
860.000000	0.820177
859.000000	0.835736
858.000000	0.838509
857.000000	0.827371
856.000000	0.822216
855.000000	0.823410
854.000000	0.820082
853.000000	0.822457
852.000000	0.827886
851.000000	0.825975
850.000000	0.822929
849.000000	0.821665
848.000000	0.817422
847.000000	0.820251
846.000000	0.826316
845.000000	0.819862
844.000000	0.815739
843.000000	0.817144
842.000000	0.821259
841.000000	0.819912
840.000000	0.817996
839.000000	0.822737
838.000000	0.817315
837.000000	0.816422
836.000000	0.814237
835.000000	0.815790
834.000000	0.812510
833.000000	0.816868
832.000000	0.809178
831.000000	0.813602
830.000000	0.812919
829.000000	0.810106
828.000000	0.814089
827.000000	0.813122
826.000000	0.809533
825.000000	0.810658
824.000000	0.813161
823.000000	0.808761
822.000000	0.809580
821.000000	0.811675
820.000000	0.810477
819.000000	0.806281
818.000000	0.807976
817.000000	0.809163
816.000000	0.806251
815.000000	0.807409
814.000000	0.804847
813.000000	0.802920
812.000000	0.807131
811.000000	0.804986
810.000000	0.806432
809.000000	0.804169
808.000000	0.804537
807.000000	0.801604
806.000000	0.807330
805.000000	0.802541
804.000000	0.802933
803.000000	0.802533
802.000000	0.801599
801.000000	0.800958
800.000000	0.800291
799.000000	0.803587
798.000000	0.803311
797.000000	0.799203
796.000000	0.798185
795.000000	0.801942
794.000000	0.799570
793.000000	0.798960
792.000000	0.799281
791.000000	0.798144
790.000000	0.797443
789.000000	0.796887
788.000000	0.798115
787.000000	0.796277
786.000000	0.796578
785.000000	0.797552
784.000000	0.795969
783.000000	0.795913
782.000000	0.795064
781.000000	0.797721
780.000000	0.792203
779.000000	0.793799
778.000000	0.794487
777.000000	0.794689
776.000000	0.792131
775.000000	0.793517
774.000000	0.791493
773.000000	0.790716
772.000000	0.791176
771.000000	0.792543
770.000000	0.790483
769.000000	0.790639
768.000000	0.790097
767.000000	0.790961
766.000000	0.791971
765.000000	0.789584
764.000000	0.788131
763.000000	0.787800
762.000000	0.789422
761.000000	0.788132
760.000000	0.786632
759.000000	0.787952
758.000000	0.788144
757.000000	0.786871
756.000000	0.786116
755.000000	0.785199
754.000000	0.785197
753.000000	0.785637
752.000000	0.784228
751.000000	0.784028
750.000000	0.782667
749.000000	0.781883
748.000000	0.782872
747.000000	0.781968
746.000000	0.781233
745.000000	0.781498
744.000000	0.781884
743.000000	0.780202
742.000000	0.779457
741.000000	0.780099
740.000000	0.779268
739.000000	0.778501
738.000000	0.778513
737.000000	0.777955
736.000000	0.778257
735.000000	0.776900
734.000000	0.775901
733.000000	0.775865
732.000000	0.776480
731.000000	0.775184
730.000000	0.775461
729.000000	0.775437
728.000000	0.775181
727.000000	0.774223
726.000000	0.773512
725.000000	0.771998
724.000000	0.773271
723.000000	0.773768
722.000000	0.772146
721.000000	0.771885
720.000000	0.772323
719.000000	0.771567
718.000000	0.770639
717.000000	0.769329
716.000000	0.770332
715.000000	0.770674
714.000000	0.768643
713.000000	0.767513
712.000000	0.767257
711.000000	0.767224
710.000000	0.767097
709.000000	0.766229
708.000000	0.765927
707.000000	0.765633
706.000000	0.764921
705.000000	0.764536
704.000000	0.764198
703.000000	0.764396
702.000000	0.763821
701.000000	0.763351
700.000000	0.762687
699.000000	0.762354
698.000000	0.761885
697.000000	0.761434
696.000000	0.759713
695.000000	0.759120
694.000000	0.760488
693.000000	0.758787
692.000000	0.757738
691.000000	0.758444
690.000000	0.757923
689.000000	0.757463
688.000000	0.756783
687.000000	0.756742
686.000000	0.756931
685.000000	0.755937
684.000000	0.755008
683.000000	0.754570
682.000000	0.755268
681.000000	0.754169
680.000000	0.753546
679.000000	0.753937
678.000000	0.752670
677.000000	0.752565
676.000000	0.752759
675.000000	0.751904
674.000000	0.750830
673.000000	0.750524
672.000000	0.750276
671.000000	0.749423
670.000000	0.748280
669.000000	0.747840
668.000000	0.747541
667.000000	0.746853
666.000000	0.747435
665.000000	0.747395
664.000000	0.745510
663.000000	0.744892
662.000000	0.745204
661.000000	0.744776
660.000000	0.744316
659.000000	0.743747
658.000000	0.743589
657.000000	0.742832
656.000000	0.742409
655.000000	0.742299
654.000000	0.741088
653.000000	0.740067
652.000000	0.739841
651.000000	0.739478
650.000000	0.739270
649.000000	0.738810
648.000000	0.737913
647.000000	0.737370
646.000000	0.736412
645.000000	0.735994
644.000000	0.736195
643.000000	0.736292
642.000000	0.735773
641.000000	0.734861
640.000000	0.734474
639.000000	0.734334
638.000000	0.733366
637.000000	0.732872
636.000000	0.732217
635.000000	0.731003
634.000000	0.730760
633.000000	0.731029
632.000000	0.730419
631.000000	0.730144
630.000000	0.729721
629.000000	0.728832
628.000000	0.728523
627.000000	0.727457
626.000000	0.726997
625.000000	0.726719
624.000000	0.725896
623.000000	0.725066
622.000000	0.724924
621.000000	0.724482
620.000000	0.723728
619.000000	0.723184
618.000000	0.723059
617.000000	0.722598
616.000000	0.721822
615.000000	0.721977
614.000000	0.721288
613.000000	0.720420
612.000000	0.719910
611.000000	0.719126
610.000000	0.718196
609.000000	0.718702
608.000000	0.718676
607.000000	0.718246
606.000000	0.717854
605.000000	0.717280
604.000000	0.716922
603.000000	0.715407
602.000000	0.715564
601.000000	0.715540
600.000000	0.715437
599.000000	0.715091
598.000000	0.714707
597.000000	0.714973
596.000000	0.715355
595.000000	0.716092
594.000000	0.716008
593.000000	0.716143
592.000000	0.716616
591.000000	0.717580
590.000000	0.718236
589.000000	0.718603
588.000000	0.719178
587.000000	0.720196
586.000000	0.720651
585.000000	0.722184
584.000000	0.724578
583.000000	0.724865
582.000000	0.726571
581.000000	0.728222
580.000000	0.728788
579.000000	0.729754
578.000000	0.730816
577.000000	0.731148
576.000000	0.731502
575.000000	0.732222
574.000000	0.731967
573.000000	0.731533
572.000000	0.731811
571.000000	0.731944
570.000000	0.730524
569.000000	0.730523
568.000000	0.729345
567.000000	0.730207
566.000000	0.729472
565.000000	0.728430
564.000000	0.727847
563.000000	0.727386
562.000000	0.726014
561.000000	0.725793
560.000000	0.725377
559.000000	0.724718
558.000000	0.724146
557.000000	0.723247
556.000000	0.722650
555.000000	0.721643
554.000000	0.720999
553.000000	0.720512
552.000000	0.719132
551.000000	0.718470
550.000000	0.717276
549.000000	0.717130
548.000000	0.715717
547.000000	0.715214
546.000000	0.714298
545.000000	0.713608
544.000000	0.712772
543.000000	0.711940
542.000000	0.710737
541.000000	0.710133
540.000000	0.709336
539.000000	0.708721
538.000000	0.708399
537.000000	0.707714
536.000000	0.707156
535.000000	0.705589
534.000000	0.705751
533.000000	0.705200
532.000000	0.704316
531.000000	0.703801
530.000000	0.703477
529.000000	0.702719
528.000000	0.701788
527.000000	0.701075
526.000000	0.700089
525.000000	0.700214
524.000000	0.699512
523.000000	0.698674
522.000000	0.697868
521.000000	0.697276
520.000000	0.696424
519.000000	0.695449
518.000000	0.694716
517.000000	0.693773
516.000000	0.692919
515.000000	0.691700
514.000000	0.691076
513.000000	0.690414
512.000000	0.688916
511.000000	0.689062
510.000000	0.687492
509.000000	0.687504
508.000000	0.686772
507.000000	0.686242
506.000000	0.685957
505.000000	0.685485
504.000000	0.686173
503.000000	0.685431
502.000000	0.686346
501.000000	0.687756
500.000000	0.688151
499.000000	0.689399
498.000000	0.689979
497.000000	0.693123
496.000000	0.694854
495.000000	0.696453
494.000000	0.699228
493.000000	0.700707
492.000000	0.702472
491.000000	0.704633
490.000000	0.705738
489.000000	0.708213
488.000000	0.710031
487.000000	0.710776
486.000000	0.711797
485.000000	0.712304
484.000000	0.713111
483.000000	0.713690
482.000000	0.714086
481.000000	0.714291
480.000000	0.713643
479.000000	0.712922
478.000000	0.712923
477.000000	0.711902
476.000000	0.711396
475.000000	0.711166
474.000000	0.710177
473.000000	0.709339
472.000000	0.707978
471.000000	0.706736
470.000000	0.705702
469.000000	0.704641
468.000000	0.703547
467.000000	0.702292
466.000000	0.700390
465.000000	0.699905
464.000000	0.699327
463.000000	0.697702
462.000000	0.695858
461.000000	0.695197
460.000000	0.695117
459.000000	0.694779
458.000000	0.693776
457.000000	0.693047
456.000000	0.693379
455.000000	0.692250
454.000000	0.691538
453.000000	0.691404
452.000000	0.690128
451.000000	0.689299
450.000000	0.688699
449.000000	0.687791
448.000000	0.687188
447.000000	0.685900
446.000000	0.685283
445.000000	0.684999
444.000000	0.684121
443.000000	0.683358
442.000000	0.682685
441.000000	0.681182
440.000000	0.680080
439.000000	0.678645
438.000000	0.678042
437.000000	0.677051
436.000000	0.675967
435.000000	0.674617
434.000000	0.673108
433.000000	0.672531
432.000000	0.671510
431.000000	0.669836
430.000000	0.668628
429.000000	0.667817
428.000000	0.666510
427.000000	0.665223
426.000000	0.664785
425.000000	0.663291
424.000000	0.662269
423.000000	0.661904
422.000000	0.659923
421.000000	0.658652
420.000000	0.658175
419.000000	0.657369
418.000000	0.656220
417.000000	0.655060
416.000000	0.654173
415.000000	0.652481
414.000000	0.651824
413.000000	0.651702
412.000000	0.650720
411.000000	0.650311
410.000000	0.649516
409.000000	0.650045
408.000000	0.651202
407.000000	0.651939
406.000000	0.652878
405.000000	0.654990
404.000000	0.658363
403.000000	0.662472
402.000000	0.666720
401.000000	0.672122
400.000000	0.678758
399.000000	0.686731
398.000000	0.695406
397.000000	0.705615
396.000000	0.717320
395.000000	0.729726
394.000000	0.742888
393.000000	0.758011
392.000000	0.775223
391.000000	0.791590
390.000000	0.808388
389.000000	0.824538
388.000000	0.840067
387.000000	0.857022
386.000000	0.873132
385.000000	0.889126
384.000000	0.904471
383.000000	0.918561
382.000000	0.932326
381.000000	0.945110
380.000000	0.956816
379.000000	0.969738
378.000000	0.984670
377.000000	0.998301
376.000000	1.009455
375.000000	1.021470
374.000000	1.030835
373.000000	1.038384
372.000000	1.047082
371.000000	1.054719
370.000000	1.064333
369.000000	1.071427
368.000000	1.078826
367.000000	1.087878
366.000000	1.094353
365.000000	1.102409
364.000000	1.110037
363.000000	1.115261
362.000000	1.121223
361.000000	1.128379
360.000000	1.135329
359.000000	1.142066
358.000000	1.147466
357.000000	1.154106
356.000000	1.158344
355.000000	1.161428
354.000000	1.166518
353.000000	1.172538
352.000000	1.175298
351.000000	1.178343
350.000000	1.179384
349.000000	1.183265
348.000000	1.187137
347.000000	1.191764
346.000000	1.194212
345.000000	1.197066
344.000000	1.199869
343.000000	1.200485
342.000000	1.200349
341.000000	1.200171
340.000000	1.199811
339.000000	1.201989
338.000000	1.203643
337.000000	1.203615
336.000000	1.204533
335.000000	1.203897
334.000000	1.203478
333.000000	1.199403
332.000000	1.199760
331.000000	1.197325
330.000000	1.199012
329.000000	1.197404
328.000000	1.195827
327.000000	1.195571
326.000000	1.193006
325.000000	1.193910
324.000000	1.192462
323.000000	1.190761
322.000000	1.185699
321.000000	1.185622
320.000000	1.184299
319.000000	1.187254
318.000000	1.190709
317.000000	1.191731
316.000000	1.188786
315.000000	1.189366
314.000000	1.183223
313.000000	1.186246
312.000000	1.184316
311.000000	1.179367
310.000000	1.181977
309.000000	1.181492
308.000000	1.185202
307.000000	1.183729
306.000000	1.184954
305.000000	1.183830
304.000000	1.181911
303.000000	1.182889
302.000000	1.182340
301.000000	1.183030
300.000000	1.182951
299.000000	1.187182
298.000000	1.187752
297.000000	1.186478
296.000000	1.188758
295.000000	1.187496
294.000000	1.185576
293.000000	1.185306
292.000000	1.184959
291.000000	1.191894
290.000000	1.189830
289.000000	1.188713
288.000000	1.187806
287.000000	1.191108
286.000000	1.190239
285.000000	1.192589
284.000000	1.188007
283.000000	1.190200
282.000000	1.190943
281.000000	1.190704
280.000000	1.191004
279.000000	1.193558
278.000000	1.195776
277.000000	1.192711
276.000000	1.187577
275.000000	1.191301
274.000000	1.190259
273.000000	1.191150
272.000000	1.191436
271.000000	1.190635
270.000000	1.191828
269.000000	1.191450
268.000000	1.193170
267.000000	1.194565
266.000000	1.192859
265.000000	1.192579
264.000000	1.191879
263.000000	1.190610
262.000000	1.190608
261.000000	1.189163
260.000000	1.190069
259.000000	1.191215
258.000000	1.192046
257.000000	1.191105
256.000000	1.191212
255.000000	1.191652
254.000000	1.191758
253.000000	1.191253
252.000000	1.190886
251.000000	1.189736
250.000000	1.186313
249.000000	1.192744
248.000000	1.189066
247.000000	1.188179
246.000000	1.187421
245.000000	1.186293
244.000000	1.188025
243.000000	1.187882
242.000000	1.184979
241.000000	1.185247
240.000000	1.182393
239.000000	1.182146
238.000000	1.180838
237.000000	1.182738
236.000000	1.180382
235.000000	1.178519
234.000000	1.176995
233.000000	1.176588
232.000000	1.174063
231.000000	1.172027
230.000000	1.173493
229.000000	1.170273
228.000000	1.168220
227.000000	1.167203
226.000000	1.164438
225.000000	1.160824
224.000000	1.157416
223.000000	1.156792
222.000000	1.154191
221.000000	1.154563
220.000000	1.150876
219.000000	1.148389
218.000000	1.147009
217.000000	1.143803
216.000000	1.140806
215.000000	1.138709
214.000000	1.136840
213.000000	1.136539
212.000000	1.132538
211.000000	1.131779
210.000000	1.124960
209.000000	1.122496
208.000000	1.118174
207.000000	1.115718
206.000000	1.113024
205.000000	1.110776
204.000000	1.104983
203.000000	1.102319
202.000000	1.097224
201.000000	1.092641
200.000000	1.086680
199.000000	1.073751
198.000000	1.071968
197.000000	1.069000
196.000000	1.064584
195.000000	1.052247
194.000000	1.050002
193.000000	1.033420
192.000000	1.030992
191.000000	1.009237
190.000000	0.958116
189.000000	0.883264
188.000000	0.712328
187.000000	0.478351
186.000000	0.266818
185.000000	0.072146
184.000000	0.015827
183.000000	0.007787
182.000000	0.031489
181.000000	0.047494
180.000000	-0.002622
179.000000	-0.017845
178.000000	-0.013675
177.000000	-0.043153
176.000000	-0.022424
175.000000	0.002775
