PE UV       SUBTECH     SPECTRUM    ASCII       PEDS        4.00        
   -1
Sample5.Sample.Raw.ASC
25/05/30
11:58:57.00
25/06/06
09:00:45.00
tom jordan
JJC R2
175.000000
1
Lambda 1050
1050L1807051
PerkinElmer UV WinLab 6.4.0.973 / 2.02.06 Lambda 900 UV/VIS/NIR, Jan 28 2016 16:58:34

0
0
3350
0
0
UV/VIS
1
1
1
RBeamAtt,SBeamAtt,150mm sphere / downward view, WB InGaAs Detector
0
0
0
0
Program
Program
3350
3350
3350
0
1
 
 
 
0
 
860.8
319.2
860.8
Front
100
 
S:100 R:100
0
0
0
0
 
0
 
 
 
0
 
 
0
0
0
0
0
 
 
 
 
0
0


0
0
#HDR
-1
-1
#GR
nm
%T
1.0
0.0
2000.000000
-1.000000
1826
8
101.799818
6.141494
#DATA
2000.000000	10.371033
1999.000000	10.255032
1998.000000	10.237856
1997.000000	10.269729
1996.000000	10.652315
1995.000000	10.327947
1994.000000	10.201828
1993.000000	10.586758
1992.000000	10.103248
1991.000000	9.934751
1990.000000	10.261669
1989.000000	10.039198
1988.000000	10.161879
1987.000000	10.317940
1986.000000	10.312928
1985.000000	10.153529
1984.000000	10.352637
1983.000000	10.087743
1982.000000	10.103969
1981.000000	10.069688
1980.000000	10.096062
1979.000000	10.251396
1978.000000	10.309414
1977.000000	10.186148
1976.000000	9.968734
1975.000000	10.118846
1974.000000	10.055183
1973.000000	10.178833
1972.000000	10.218238
1971.000000	9.900064
1970.000000	10.156077
1969.000000	10.240991
1968.000000	10.015647
1967.000000	10.042226
1966.000000	9.971075
1965.000000	9.934980
1964.000000	9.907042
1963.000000	9.895529
1962.000000	10.077922
1961.000000	9.731527
1960.000000	10.073491
1959.000000	9.808035
1958.000000	10.091762
1957.000000	10.006288
1956.000000	9.736279
1955.000000	9.757622
1954.000000	9.907818
1953.000000	9.857936
1952.000000	9.615436
1951.000000	9.877590
1950.000000	10.035222
1949.000000	9.758049
1948.000000	9.993141
1947.000000	10.102131
1946.000000	10.067856
1945.000000	9.936604
1944.000000	10.048078
1943.000000	10.118310
1942.000000	9.921744
1941.000000	10.149485
1940.000000	10.088254
1939.000000	10.214168
1938.000000	10.160685
1937.000000	10.190395
1936.000000	10.387212
1935.000000	10.270108
1934.000000	10.530209
1933.000000	10.799285
1932.000000	10.792772
1931.000000	10.686119
1930.000000	11.088735
1929.000000	10.812646
1928.000000	10.632001
1927.000000	10.515574
1926.000000	10.460802
1925.000000	10.268831
1924.000000	10.161645
1923.000000	10.037256
1922.000000	9.544826
1921.000000	9.499899
1920.000000	9.645128
1919.000000	9.518817
1918.000000	9.576747
1917.000000	9.892248
1916.000000	10.013594
1915.000000	9.947684
1914.000000	10.204154
1913.000000	10.155446
1912.000000	10.210758
1911.000000	10.491510
1910.000000	10.337273
1909.000000	10.349348
1908.000000	10.551471
1907.000000	10.410390
1906.000000	10.349015
1905.000000	10.339154
1904.000000	10.237148
1903.000000	10.428071
1902.000000	10.518238
1901.000000	10.458274
1900.000000	10.548289
1899.000000	10.555286
1898.000000	10.095667
1897.000000	9.961667
1896.000000	10.181459
1895.000000	10.294565
1894.000000	10.360674
1893.000000	10.125489
1892.000000	10.050716
1891.000000	10.084793
1890.000000	10.365661
1889.000000	10.472443
1888.000000	10.282223
1887.000000	10.634694
1886.000000	10.728376
1885.000000	10.561777
1884.000000	10.700597
1883.000000	10.831660
1882.000000	10.795879
1881.000000	10.538675
1880.000000	10.466778
1879.000000	10.357668
1878.000000	10.327352
1877.000000	10.342202
1876.000000	10.385442
1875.000000	10.145209
1874.000000	9.958135
1873.000000	10.267625
1872.000000	10.345965
1871.000000	10.342225
1870.000000	10.407442
1869.000000	10.519498
1868.000000	10.547560
1867.000000	10.611408
1866.000000	10.721165
1865.000000	10.767627
1864.000000	10.789865
1863.000000	10.716945
1862.000000	10.609966
1861.000000	10.649102
1860.000000	10.461453
1859.000000	10.339463
1858.000000	10.228690
1857.000000	10.224875
1856.000000	10.154300
1855.000000	10.111882
1854.000000	10.320839
1853.000000	10.087929
1852.000000	10.197295
1851.000000	10.478883
1850.000000	10.533968
1849.000000	10.484676
1848.000000	10.498615
1847.000000	10.543675
1846.000000	10.544379
1845.000000	10.545593
1844.000000	10.450667
1843.000000	10.445999
1842.000000	10.337440
1841.000000	10.041348
1840.000000	9.909620
1839.000000	9.916513
1838.000000	10.415017
1837.000000	10.360316
1836.000000	10.480066
1835.000000	10.420151
1834.000000	10.305451
1833.000000	10.346013
1832.000000	10.395491
1831.000000	10.503693
1830.000000	10.526839
1829.000000	10.750385
1828.000000	10.532537
1827.000000	10.366353
1826.000000	10.345584
1825.000000	10.388217
1824.000000	10.381378
1823.000000	10.234579
1822.000000	10.075811
1821.000000	10.156007
1820.000000	10.289470
1819.000000	10.421326
1818.000000	10.372274
1817.000000	10.329350
1816.000000	10.421614
1815.000000	10.237950
1814.000000	10.434124
1813.000000	10.436479
1812.000000	10.398172
1811.000000	10.473166
1810.000000	10.560756
1809.000000	10.388001
1808.000000	10.436527
1807.000000	10.448573
1806.000000	10.342964
1805.000000	10.172226
1804.000000	10.243939
1803.000000	10.340321
1802.000000	10.314709
1801.000000	10.323239
1800.000000	10.313878
1799.000000	10.327947
1798.000000	10.453338
1797.000000	10.570804
1796.000000	10.454108
1795.000000	10.499026
1794.000000	10.493201
1793.000000	10.396017
1792.000000	10.275903
1791.000000	10.338416
1790.000000	10.243468
1789.000000	10.215509
1788.000000	10.419887
1787.000000	10.301062
1786.000000	10.306020
1785.000000	10.441334
1784.000000	10.464416
1783.000000	10.510297
1782.000000	10.468248
1781.000000	10.611676
1780.000000	10.471093
1779.000000	10.384773
1778.000000	10.342392
1777.000000	10.464344
1776.000000	10.504491
1775.000000	10.339059
1774.000000	10.395946
1773.000000	10.359290
1772.000000	10.370125
1771.000000	10.616198
1770.000000	10.462440
1769.000000	10.593440
1768.000000	10.623607
1767.000000	10.495013
1766.000000	10.738509
1765.000000	10.664316
1764.000000	10.463211
1763.000000	10.561801
1762.000000	10.501347
1761.000000	10.429800
1760.000000	10.294707
1759.000000	10.469718
1758.000000	10.194807
1757.000000	10.414034
1756.000000	10.607548
1755.000000	10.601370
1754.000000	10.654253
1753.000000	10.717438
1752.000000	10.792225
1751.000000	10.548167
1750.000000	10.674339
1749.000000	10.730205
1748.000000	10.539597
1747.000000	10.572702
1746.000000	10.505628
1745.000000	10.291910
1744.000000	10.372466
1743.000000	10.480572
1742.000000	10.540932
1741.000000	10.576866
1740.000000	10.681199
1739.000000	10.837048
1738.000000	10.733615
1737.000000	10.644714
1736.000000	10.606253
1735.000000	10.375308
1734.000000	10.505579
1733.000000	10.601736
1732.000000	10.463717
1731.000000	10.584881
1730.000000	10.520031
1729.000000	10.770751
1728.000000	10.862880
1727.000000	10.710309
1726.000000	10.762422
1725.000000	10.453314
1724.000000	10.707843
1723.000000	10.648784
1722.000000	10.652266
1721.000000	10.569489
1720.000000	10.590123
1719.000000	10.686340
1718.000000	10.733590
1717.000000	10.782215
1716.000000	10.804060
1715.000000	10.724227
1714.000000	10.741180
1713.000000	10.727462
1712.000000	10.700449
1711.000000	10.597782
1710.000000	10.587855
1709.000000	10.629161
1708.000000	10.656093
1707.000000	10.636139
1706.000000	10.771793
1705.000000	10.798837
1704.000000	10.727586
1703.000000	10.667705
1702.000000	10.700597
1701.000000	10.666870
1700.000000	10.639029
1699.000000	10.443955
1698.000000	10.443354
1697.000000	10.644028
1696.000000	10.698010
1695.000000	10.765148
1694.000000	10.662818
1693.000000	10.742590
1692.000000	10.701336
1691.000000	10.678125
1690.000000	10.685848
1689.000000	10.629724
1688.000000	10.597953
1687.000000	10.630165
1686.000000	10.727092
1685.000000	10.843014
1684.000000	10.794189
1683.000000	10.767776
1682.000000	10.725091
1681.000000	10.794537
1680.000000	10.840367
1679.000000	10.644518
1678.000000	10.685085
1677.000000	10.669670
1676.000000	10.713935
1675.000000	10.733368
1674.000000	10.826972
1673.000000	10.922096
1672.000000	10.901970
1671.000000	10.821165
1670.000000	10.582176
1669.000000	10.577377
1668.000000	10.616173
1667.000000	10.632221
1666.000000	10.747068
1665.000000	10.899862
1664.000000	10.909579
1663.000000	10.862655
1662.000000	10.853705
1661.000000	10.873992
1660.000000	10.797818
1659.000000	10.805777
1658.000000	10.843288
1657.000000	10.760340
1656.000000	10.744470
1655.000000	10.751177
1654.000000	10.804682
1653.000000	10.873741
1652.000000	10.883561
1651.000000	10.843813
1650.000000	10.805031
1649.000000	10.827769
1648.000000	10.764925
1647.000000	10.709618
1646.000000	10.759448
1645.000000	10.753009
1644.000000	10.798638
1643.000000	10.815560
1642.000000	10.901242
1641.000000	10.956126
1640.000000	10.893088
1639.000000	10.896223
1638.000000	10.803090
1637.000000	10.793791
1636.000000	10.778765
1635.000000	10.693552
1634.000000	10.685651
1633.000000	10.705822
1632.000000	10.842489
1631.000000	10.897353
1630.000000	10.896123
1629.000000	10.992311
1628.000000	10.957639
1627.000000	10.895421
1626.000000	10.869411
1625.000000	10.855654
1624.000000	10.828268
1623.000000	10.897077
1622.000000	11.024731
1621.000000	11.023690
1620.000000	10.991931
1619.000000	10.957488
1618.000000	10.892436
1617.000000	10.816631
1616.000000	10.872314
1615.000000	10.899887
1614.000000	10.828243
1613.000000	10.896700
1612.000000	11.017727
1611.000000	11.062238
1610.000000	10.948862
1609.000000	10.937020
1608.000000	10.979385
1607.000000	10.883210
1606.000000	10.869561
1605.000000	10.906967
1604.000000	10.939891
1603.000000	10.983683
1602.000000	10.964933
1601.000000	10.977792
1600.000000	10.976907
1599.000000	11.091799
1598.000000	10.982520
1597.000000	10.952821
1596.000000	10.943292
1595.000000	10.977994
1594.000000	11.003453
1593.000000	11.047067
1592.000000	11.101304
1591.000000	11.066518
1590.000000	10.987022
1589.000000	11.085008
1588.000000	11.002642
1587.000000	10.981003
1586.000000	10.981458
1585.000000	10.989502
1584.000000	11.033467
1583.000000	11.006266
1582.000000	11.123027
1581.000000	11.075083
1580.000000	11.036313
1579.000000	11.075542
1578.000000	11.006621
1577.000000	10.992463
1576.000000	10.953275
1575.000000	11.071743
1574.000000	11.057247
1573.000000	11.054319
1572.000000	11.098109
1571.000000	11.161074
1570.000000	11.092106
1569.000000	11.086973
1568.000000	11.041600
1567.000000	11.026026
1566.000000	11.043608
1565.000000	11.071922
1564.000000	11.015850
1563.000000	11.111585
1562.000000	11.060735
1561.000000	11.127126
1560.000000	11.126306
1559.000000	11.057552
1558.000000	11.129253
1557.000000	11.099438
1556.000000	11.113555
1555.000000	11.041701
1554.000000	11.140457
1553.000000	11.142945
1552.000000	11.192884
1551.000000	11.202991
1550.000000	11.179104
1549.000000	11.181472
1548.000000	11.229515
1547.000000	11.149208
1546.000000	11.225198
1545.000000	11.170510
1544.000000	11.070086
1543.000000	11.200232
1542.000000	11.174729
1541.000000	11.173262
1540.000000	11.228920
1539.000000	11.245014
1538.000000	11.140636
1537.000000	11.146358
1536.000000	11.159455
1535.000000	11.226128
1534.000000	11.169404
1533.000000	11.201108
1532.000000	11.287870
1531.000000	11.198762
1530.000000	11.282491
1529.000000	11.250505
1528.000000	11.159173
1527.000000	11.160406
1526.000000	11.227602
1525.000000	11.209571
1524.000000	11.223880
1523.000000	11.257605
1522.000000	11.399400
1521.000000	11.272727
1520.000000	11.342270
1519.000000	11.224138
1518.000000	11.157323
1517.000000	11.229205
1516.000000	11.262194
1515.000000	11.265280
1514.000000	11.304439
1513.000000	11.395647
1512.000000	11.376089
1511.000000	11.331385
1510.000000	11.320484
1509.000000	11.330237
1508.000000	11.308057
1507.000000	11.197008
1506.000000	11.309047
1505.000000	11.326585
1504.000000	11.342453
1503.000000	11.448854
1502.000000	11.300691
1501.000000	11.422180
1500.000000	11.380465
1499.000000	11.359887
1498.000000	11.359076
1497.000000	11.326533
1496.000000	11.373994
1495.000000	11.409563
1494.000000	11.408617
1493.000000	11.493810
1492.000000	11.512775
1491.000000	11.423811
1490.000000	11.313214
1489.000000	11.399663
1488.000000	11.422075
1487.000000	11.425915
1486.000000	11.520863
1485.000000	11.560004
1484.000000	11.531240
1483.000000	11.425363
1482.000000	11.448326
1481.000000	11.408118
1480.000000	11.389640
1479.000000	11.440289
1478.000000	11.469936
1477.000000	11.463652
1476.000000	11.500719
1475.000000	11.519271
1474.000000	11.563971
1473.000000	11.486375
1472.000000	11.529726
1471.000000	11.456976
1470.000000	11.398114
1469.000000	11.470438
1468.000000	11.473106
1467.000000	11.522693
1466.000000	11.541786
1465.000000	11.558887
1464.000000	11.562294
1463.000000	11.528160
1462.000000	11.537428
1461.000000	11.474823
1460.000000	11.499660
1459.000000	11.531532
1458.000000	11.520544
1457.000000	11.586039
1456.000000	11.577772
1455.000000	11.606626
1454.000000	11.678283
1453.000000	11.650512
1452.000000	11.622271
1451.000000	11.501196
1450.000000	11.544949
1449.000000	11.560484
1448.000000	11.604435
1447.000000	11.673766
1446.000000	11.706660
1445.000000	11.720820
1444.000000	11.582145
1443.000000	11.612748
1442.000000	11.640081
1441.000000	11.594473
1440.000000	11.591777
1439.000000	11.611705
1438.000000	11.683958
1437.000000	11.673471
1436.000000	11.663530
1435.000000	11.731999
1434.000000	11.669117
1433.000000	11.673471
1432.000000	11.643405
1431.000000	11.574360
1430.000000	11.610128
1429.000000	11.666431
1428.000000	11.710650
1427.000000	11.711459
1426.000000	11.738430
1425.000000	11.749598
1424.000000	11.687429
1423.000000	11.761724
1422.000000	11.746162
1421.000000	11.655663
1420.000000	11.675648
1419.000000	11.675111
1418.000000	11.725166
1417.000000	11.778175
1416.000000	11.767440
1415.000000	11.759856
1414.000000	11.761156
1413.000000	11.771830
1412.000000	11.770502
1411.000000	11.765435
1410.000000	11.757040
1409.000000	11.781294
1408.000000	11.831124
1407.000000	11.858261
1406.000000	11.876870
1405.000000	11.834966
1404.000000	11.791851
1403.000000	11.811335
1402.000000	11.764921
1401.000000	11.760018
1400.000000	11.808861
1399.000000	11.862548
1398.000000	11.857005
1397.000000	11.853101
1396.000000	11.897754
1395.000000	11.867439
1394.000000	11.856650
1393.000000	11.809894
1392.000000	11.795490
1391.000000	11.807528
1390.000000	11.846035
1389.000000	11.933532
1388.000000	11.932460
1387.000000	11.934356
1386.000000	11.964898
1385.000000	11.943731
1384.000000	11.959554
1383.000000	11.945298
1382.000000	11.887841
1381.000000	11.810737
1380.000000	11.838345
1379.000000	11.869652
1378.000000	11.918538
1377.000000	11.944033
1376.000000	11.997092
1375.000000	12.023198
1374.000000	11.967516
1373.000000	11.977164
1372.000000	12.007041
1371.000000	11.989636
1370.000000	11.994883
1369.000000	11.987648
1368.000000	11.919417
1367.000000	11.922711
1366.000000	11.978874
1365.000000	11.995601
1364.000000	12.036161
1363.000000	12.033889
1362.000000	12.069075
1361.000000	12.014979
1360.000000	12.062019
1359.000000	12.110135
1358.000000	12.020734
1357.000000	12.014287
1356.000000	11.988063
1355.000000	12.017552
1354.000000	12.086624
1353.000000	12.068547
1352.000000	12.119341
1351.000000	12.088321
1350.000000	12.117778
1349.000000	12.089212
1348.000000	12.051941
1347.000000	12.059408
1346.000000	12.081560
1345.000000	12.032587
1344.000000	12.034277
1343.000000	12.103278
1342.000000	12.137158
1341.000000	12.118560
1340.000000	12.187230
1339.000000	12.139869
1338.000000	12.168050
1337.000000	12.196859
1336.000000	12.152175
1335.000000	12.077610
1334.000000	12.125956
1333.000000	12.108769
1332.000000	12.102915
1331.000000	12.140428
1330.000000	12.193910
1329.000000	12.185602
1328.000000	12.226299
1327.000000	12.219319
1326.000000	12.208013
1325.000000	12.177468
1324.000000	12.150692
1323.000000	12.163820
1322.000000	12.152958
1321.000000	12.141183
1320.000000	12.206692
1319.000000	12.229311
1318.000000	12.279113
1317.000000	12.290852
1316.000000	12.270436
1315.000000	12.217659
1314.000000	12.268374
1313.000000	12.273488
1312.000000	12.233085
1311.000000	12.249715
1310.000000	12.258716
1309.000000	12.211950
1308.000000	12.271340
1307.000000	12.299204
1306.000000	12.379469
1305.000000	12.355036
1304.000000	12.304331
1303.000000	12.314279
1302.000000	12.277021
1301.000000	12.295183
1300.000000	12.314790
1299.000000	12.284317
1298.000000	12.336245
1297.000000	12.364114
1296.000000	12.422786
1295.000000	12.399666
1294.000000	12.461118
1293.000000	12.442309
1292.000000	12.391532
1291.000000	12.403379
1290.000000	12.378841
1289.000000	12.393158
1288.000000	12.335223
1287.000000	12.399181
1286.000000	12.477110
1285.000000	12.451280
1284.000000	12.502763
1283.000000	12.478001
1282.000000	12.503972
1281.000000	12.446550
1280.000000	12.491454
1279.000000	12.440734
1278.000000	12.437870
1277.000000	12.500834
1276.000000	12.483806
1275.000000	12.527459
1274.000000	12.529017
1273.000000	12.538368
1272.000000	12.553447
1271.000000	12.560300
1270.000000	12.486566
1269.000000	12.510481
1268.000000	12.515264
1267.000000	12.518088
1266.000000	12.511720
1265.000000	12.605672
1264.000000	12.654821
1263.000000	12.611391
1262.000000	12.617694
1261.000000	12.621966
1260.000000	12.598040
1259.000000	12.547812
1258.000000	12.626239
1257.000000	12.627169
1256.000000	12.616184
1255.000000	12.686534
1254.000000	12.701763
1253.000000	12.635953
1252.000000	12.642443
1251.000000	12.632927
1250.000000	12.611653
1249.000000	12.633306
1248.000000	12.673950
1247.000000	12.737084
1246.000000	12.726559
1245.000000	12.753048
1244.000000	12.766210
1243.000000	12.741601
1242.000000	12.753489
1241.000000	12.712560
1240.000000	12.708930
1239.000000	12.666482
1238.000000	12.780769
1237.000000	12.765329
1236.000000	12.789513
1235.000000	12.818376
1234.000000	12.819881
1233.000000	12.792664
1232.000000	12.783624
1231.000000	12.808433
1230.000000	12.788040
1229.000000	12.790720
1228.000000	12.857839
1227.000000	12.821564
1226.000000	12.822922
1225.000000	12.886323
1224.000000	12.901583
1223.000000	12.883089
1222.000000	12.904940
1221.000000	12.889884
1220.000000	12.836127
1219.000000	12.806074
1218.000000	12.838935
1217.000000	12.889587
1216.000000	12.910914
1215.000000	12.903158
1214.000000	12.917010
1213.000000	12.902860
1212.000000	12.953794
1211.000000	12.963283
1210.000000	12.924894
1209.000000	12.951647
1208.000000	12.974601
1207.000000	12.944313
1206.000000	12.920758
1205.000000	12.943806
1204.000000	12.977559
1203.000000	12.978903
1202.000000	13.019731
1201.000000	13.056116
1200.000000	13.048693
1199.000000	13.044487
1198.000000	13.063694
1197.000000	13.023089
1196.000000	13.035899
1195.000000	13.060596
1194.000000	13.012897
1193.000000	13.040493
1192.000000	13.042985
1191.000000	13.040313
1190.000000	13.097126
1189.000000	13.128739
1188.000000	13.077779
1187.000000	13.084737
1186.000000	13.104667
1185.000000	13.086515
1184.000000	13.084888
1183.000000	13.086726
1182.000000	13.087057
1181.000000	13.134574
1180.000000	13.150159
1179.000000	13.175284
1178.000000	13.211222
1177.000000	13.224157
1176.000000	13.195110
1175.000000	13.201066
1174.000000	13.212196
1173.000000	13.176710
1172.000000	13.157034
1171.000000	13.189976
1170.000000	13.219377
1169.000000	13.163579
1168.000000	13.191191
1167.000000	13.262060
1166.000000	13.268780
1165.000000	13.284769
1164.000000	13.317110
1163.000000	13.293520
1162.000000	13.280793
1161.000000	13.303717
1160.000000	13.270766
1159.000000	13.245306
1158.000000	13.243873
1157.000000	13.224553
1156.000000	13.222239
1155.000000	13.296030
1154.000000	13.353927
1153.000000	13.361955
1152.000000	13.385081
1151.000000	13.412693
1150.000000	13.399142
1149.000000	13.385790
1148.000000	13.400284
1147.000000	13.344306
1146.000000	13.352636
1145.000000	13.376793
1144.000000	13.367002
1143.000000	13.399297
1142.000000	13.429505
1141.000000	13.434546
1140.000000	13.423754
1139.000000	13.455784
1138.000000	13.477520
1137.000000	13.495563
1136.000000	13.501002
1135.000000	13.513349
1134.000000	13.485126
1133.000000	13.452345
1132.000000	13.455133
1131.000000	13.482518
1130.000000	13.499044
1129.000000	13.571661
1128.000000	13.597623
1127.000000	13.566131
1126.000000	13.579851
1125.000000	13.570848
1124.000000	13.543409
1123.000000	13.522999
1122.000000	13.567662
1121.000000	13.531502
1120.000000	13.512509
1119.000000	13.545374
1118.000000	13.565600
1117.000000	13.595713
1116.000000	13.627871
1115.000000	13.713269
1114.000000	13.671841
1113.000000	13.674139
1112.000000	13.681320
1111.000000	13.640145
1110.000000	13.594211
1109.000000	13.568005
1108.000000	13.591801
1107.000000	13.679398
1106.000000	13.724578
1105.000000	13.735643
1104.000000	13.763060
1103.000000	13.755583
1102.000000	13.786404
1101.000000	13.733935
1100.000000	13.714974
1099.000000	13.735580
1098.000000	13.775869
1097.000000	13.726917
1096.000000	13.745483
1095.000000	13.806990
1094.000000	13.784912
1093.000000	13.847265
1092.000000	13.865100
1091.000000	13.803143
1090.000000	13.791039
1089.000000	13.782786
1088.000000	13.754569
1087.000000	13.835473
1086.000000	13.870720
1085.000000	13.875511
1084.000000	13.854632
1083.000000	13.950539
1082.000000	13.941131
1081.000000	13.949608
1080.000000	13.849114
1079.000000	13.858142
1078.000000	13.924673
1077.000000	13.916499
1076.000000	13.929419
1075.000000	13.940168
1074.000000	13.967542
1073.000000	14.039253
1072.000000	14.014222
1071.000000	13.979769
1070.000000	13.985532
1069.000000	14.025198
1068.000000	13.969408
1067.000000	13.872509
1066.000000	13.981057
1065.000000	14.014061
1064.000000	13.994101
1063.000000	14.102789
1062.000000	14.074987
1061.000000	14.105159
1060.000000	14.034373
1059.000000	14.099607
1058.000000	14.080854
1057.000000	14.084291
1056.000000	14.098893
1055.000000	14.102009
1054.000000	14.034631
1053.000000	14.121603
1052.000000	14.187765
1051.000000	14.130841
1050.000000	14.129214
1049.000000	14.160090
1048.000000	14.224925
1047.000000	14.126026
1046.000000	14.176989
1045.000000	14.279533
1044.000000	14.129377
1043.000000	14.202245
1042.000000	14.291539
1041.000000	14.212943
1040.000000	14.263004
1039.000000	14.237181
1038.000000	14.210783
1037.000000	14.294699
1036.000000	14.212877
1035.000000	14.219850
1034.000000	14.025263
1033.000000	14.192372
1032.000000	14.367956
1031.000000	14.291671
1030.000000	14.349838
1029.000000	14.342307
1028.000000	14.356481
1027.000000	14.328443
1026.000000	14.346336
1025.000000	14.346501
1024.000000	14.278415
1023.000000	14.376792
1022.000000	14.419161
1021.000000	14.466851
1020.000000	14.513528
1019.000000	14.513261
1018.000000	14.417999
1017.000000	14.372357
1016.000000	14.382123
1015.000000	14.439561
1014.000000	14.412456
1013.000000	14.436935
1012.000000	14.359754
1011.000000	14.406185
1010.000000	14.505443
1009.000000	14.535735
1008.000000	14.541493
1007.000000	14.540154
1006.000000	14.602291
1005.000000	14.509552
1004.000000	14.499065
1003.000000	14.493958
1002.000000	14.493491
1001.000000	14.634403
1000.000000	14.575115
999.000000	14.659765
998.000000	14.655445
997.000000	14.674050
996.000000	14.672091
995.000000	14.593249
994.000000	14.498564
993.000000	14.581762
992.000000	14.506011
991.000000	14.591032
990.000000	14.621772
989.000000	14.802327
988.000000	14.753872
987.000000	14.819959
986.000000	14.823747
985.000000	14.667125
984.000000	14.714517
983.000000	14.616554
982.000000	14.642694
981.000000	14.666382
980.000000	14.729771
979.000000	14.748199
978.000000	14.755978
977.000000	14.867194
976.000000	14.839217
975.000000	14.641750
974.000000	14.773895
973.000000	14.827127
972.000000	14.777229
971.000000	14.744295
970.000000	14.863942
969.000000	14.897967
968.000000	14.791084
967.000000	14.909532
966.000000	14.895326
965.000000	14.914819
964.000000	14.980041
963.000000	14.929766
962.000000	14.866578
961.000000	14.815694
960.000000	14.884971
959.000000	14.921724
958.000000	14.914854
957.000000	15.124534
956.000000	15.021524
955.000000	14.968800
954.000000	14.966009
953.000000	15.039729
952.000000	14.962150
951.000000	14.977006
950.000000	15.025537
949.000000	14.974144
948.000000	15.028616
947.000000	15.161948
946.000000	15.141120
945.000000	15.143351
944.000000	15.111967
943.000000	15.167779
942.000000	15.009803
941.000000	14.895531
940.000000	15.023496
939.000000	15.090860
938.000000	15.165230
937.000000	15.347336
936.000000	15.331865
935.000000	15.103792
934.000000	15.146281
933.000000	15.154339
932.000000	15.022216
931.000000	15.089818
930.000000	15.012015
929.000000	15.143142
928.000000	15.343025
927.000000	15.415833
926.000000	15.317363
925.000000	15.300372
924.000000	15.478184
923.000000	15.352638
922.000000	15.266342
921.000000	15.346629
920.000000	15.314083
919.000000	15.346276
918.000000	15.511293
917.000000	15.719365
916.000000	15.558402
915.000000	15.334090
914.000000	15.371173
913.000000	15.254325
912.000000	15.165579
911.000000	15.264339
910.000000	15.433343
909.000000	15.416188
908.000000	15.216964
907.000000	15.565497
906.000000	15.750306
905.000000	15.516365
904.000000	15.541538
903.000000	15.569404
902.000000	15.350658
901.000000	15.356527
900.000000	15.663507
899.000000	15.795523
898.000000	15.669748
897.000000	15.932356
896.000000	15.869016
895.000000	15.780036
894.000000	15.648763
893.000000	15.410652
892.000000	15.571914
891.000000	15.538962
890.000000	16.008808
889.000000	16.160991
888.000000	16.076703
887.000000	16.223890
886.000000	15.988068
885.000000	15.602745
884.000000	15.543077
883.000000	15.542504
882.000000	15.238773
881.000000	15.333207
880.000000	15.906843
879.000000	16.017952
878.000000	15.712996
877.000000	15.558832
876.000000	15.992708
875.000000	15.800834
874.000000	15.743816
873.000000	15.826431
872.000000	16.103304
871.000000	15.900947
870.000000	16.394984
869.000000	16.081554
868.000000	16.308011
867.000000	16.441900
866.000000	15.169456
865.000000	15.409693
864.000000	15.607092
863.000000	16.032232
862.000000	16.000295
861.000000	15.055736
860.000000	14.452900
859.000000	14.471748
858.000000	14.376759
857.000000	14.763625
856.000000	14.661655
855.000000	14.747724
854.000000	14.866817
853.000000	14.781687
852.000000	14.844070
851.000000	14.839593
850.000000	14.789585
849.000000	14.858535
848.000000	14.806759
847.000000	14.773793
846.000000	14.897246
845.000000	14.908055
844.000000	15.017132
843.000000	14.927738
842.000000	14.963494
841.000000	15.040560
840.000000	15.212970
839.000000	15.143317
838.000000	15.139516
837.000000	15.136031
836.000000	15.266764
835.000000	15.239966
834.000000	15.248074
833.000000	15.246565
832.000000	15.340658
831.000000	15.312637
830.000000	15.350128
829.000000	15.319938
828.000000	15.350234
827.000000	15.351683
826.000000	15.384663
825.000000	15.398131
824.000000	15.334407
823.000000	15.349350
822.000000	15.504723
821.000000	15.580522
820.000000	15.518938
819.000000	15.476117
818.000000	15.587340
817.000000	15.552099
816.000000	15.548375
815.000000	15.504009
814.000000	15.578047
813.000000	15.578549
812.000000	15.626726
811.000000	15.581275
810.000000	15.679601
809.000000	15.683103
808.000000	15.702363
807.000000	15.682381
806.000000	15.684331
805.000000	15.666284
804.000000	15.771282
803.000000	15.735661
802.000000	15.694302
801.000000	15.744251
800.000000	15.756944
799.000000	15.819509
798.000000	15.774442
797.000000	15.785633
796.000000	15.893224
795.000000	15.829602
794.000000	15.884151
793.000000	15.815393
792.000000	15.916626
791.000000	15.862221
790.000000	15.921207
789.000000	15.934741
788.000000	15.885906
787.000000	15.915526
786.000000	15.962577
785.000000	15.984792
784.000000	16.025847
783.000000	16.015592
782.000000	16.105715
781.000000	16.134630
780.000000	16.025257
779.000000	16.055247
778.000000	16.128204
777.000000	16.085368
776.000000	16.153216
775.000000	16.187955
774.000000	16.172755
773.000000	16.127498
772.000000	16.144924
771.000000	16.219595
770.000000	16.234690
769.000000	16.201081
768.000000	16.190304
767.000000	16.234765
766.000000	16.241084
765.000000	16.304407
764.000000	16.347186
763.000000	16.288572
762.000000	16.305345
761.000000	16.338192
760.000000	16.357917
759.000000	16.367638
758.000000	16.401176
757.000000	16.457846
756.000000	16.477715
755.000000	16.444588
754.000000	16.476691
753.000000	16.475629
752.000000	16.463911
751.000000	16.510453
750.000000	16.499128
749.000000	16.503650
748.000000	16.506690
747.000000	16.570934
746.000000	16.634548
745.000000	16.606152
744.000000	16.613189
743.000000	16.682380
742.000000	16.696598
741.000000	16.652598
740.000000	16.709944
739.000000	16.755755
738.000000	16.715871
737.000000	16.797630
736.000000	16.775868
735.000000	16.817793
734.000000	16.779924
733.000000	16.790012
732.000000	16.857222
731.000000	16.875941
730.000000	16.886281
729.000000	16.923454
728.000000	16.895070
727.000000	16.946734
726.000000	16.959459
725.000000	16.981342
724.000000	16.979739
723.000000	16.993037
722.000000	17.031190
721.000000	17.063535
720.000000	17.030837
719.000000	17.079455
718.000000	17.077410
717.000000	17.096452
716.000000	17.133575
715.000000	17.140915
714.000000	17.174180
713.000000	17.193963
712.000000	17.232449
711.000000	17.234512
710.000000	17.251267
709.000000	17.257068
708.000000	17.258896
707.000000	17.279573
706.000000	17.280130
705.000000	17.345068
704.000000	17.345387
703.000000	17.364929
702.000000	17.397386
701.000000	17.449501
700.000000	17.461156
699.000000	17.450867
698.000000	17.466143
697.000000	17.499071
696.000000	17.556058
695.000000	17.569807
694.000000	17.562527
693.000000	17.579722
692.000000	17.602526
691.000000	17.624914
690.000000	17.665665
689.000000	17.668594
688.000000	17.681211
687.000000	17.708305
686.000000	17.722909
685.000000	17.725398
684.000000	17.744673
683.000000	17.792583
682.000000	17.779191
681.000000	17.795369
680.000000	17.845963
679.000000	17.865740
678.000000	17.897897
677.000000	17.943204
676.000000	17.952337
675.000000	17.954363
674.000000	17.957919
673.000000	17.990283
672.000000	18.015279
671.000000	18.013910
670.000000	18.036904
669.000000	18.068454
668.000000	18.097726
667.000000	18.120159
666.000000	18.138067
665.000000	18.162348
664.000000	18.197847
663.000000	18.214405
662.000000	18.209625
661.000000	18.232407
660.000000	18.269977
659.000000	18.287780
658.000000	18.331584
657.000000	18.364411
656.000000	18.366694
655.000000	18.394839
654.000000	18.415097
653.000000	18.423791
652.000000	18.440428
651.000000	18.460948
650.000000	18.481193
649.000000	18.509684
648.000000	18.531988
647.000000	18.556967
646.000000	18.597818
645.000000	18.613284
644.000000	18.629963
643.000000	18.653314
642.000000	18.661734
641.000000	18.688868
640.000000	18.736092
639.000000	18.768303
638.000000	18.792606
637.000000	18.811698
636.000000	18.831807
635.000000	18.859883
634.000000	18.884914
633.000000	18.901880
632.000000	18.926835
631.000000	18.950078
630.000000	18.967627
629.000000	18.976976
628.000000	19.003649
627.000000	19.019189
626.000000	19.058205
625.000000	19.088157
624.000000	19.109354
623.000000	19.159801
622.000000	19.188366
621.000000	19.172909
620.000000	19.196630
619.000000	19.227375
618.000000	19.259101
617.000000	19.301497
616.000000	19.316258
615.000000	19.323287
614.000000	19.363372
613.000000	19.388714
612.000000	19.412747
611.000000	19.432201
610.000000	19.446435
609.000000	19.477984
608.000000	19.500601
607.000000	19.516143
606.000000	19.540740
605.000000	19.563971
604.000000	19.567259
603.000000	19.582945
602.000000	19.594582
601.000000	19.612141
600.000000	19.626100
599.000000	19.654726
598.000000	19.645451
597.000000	19.646763
596.000000	19.627681
595.000000	19.635185
594.000000	19.640521
593.000000	19.629399
592.000000	19.601667
591.000000	19.559466
590.000000	19.520683
589.000000	19.471616
588.000000	19.442898
587.000000	19.357354
586.000000	19.324844
585.000000	19.272276
584.000000	19.203615
583.000000	19.158390
582.000000	19.087014
581.000000	19.033033
580.000000	19.028388
579.000000	18.973611
578.000000	18.933809
577.000000	18.888219
576.000000	18.892655
575.000000	18.903621
574.000000	18.882957
573.000000	18.862228
572.000000	18.861751
571.000000	18.882261
570.000000	18.909411
569.000000	18.930540
568.000000	18.939565
567.000000	18.965225
566.000000	18.986722
565.000000	19.012490
564.000000	19.022430
563.000000	19.054125
562.000000	19.073966
561.000000	19.087849
560.000000	19.099500
559.000000	19.147673
558.000000	19.162846
557.000000	19.223789
556.000000	19.233309
555.000000	19.282751
554.000000	19.323999
553.000000	19.368278
552.000000	19.384518
551.000000	19.427817
550.000000	19.467447
549.000000	19.506574
548.000000	19.532013
547.000000	19.558926
546.000000	19.592822
545.000000	19.645994
544.000000	19.674106
543.000000	19.706750
542.000000	19.779805
541.000000	19.801177
540.000000	19.811438
539.000000	19.854868
538.000000	19.877740
537.000000	19.920673
536.000000	19.942564
535.000000	19.946009
534.000000	19.983198
533.000000	20.006541
532.000000	20.048736
531.000000	20.088754
530.000000	20.093843
529.000000	20.129315
528.000000	20.169122
527.000000	20.182362
526.000000	20.203518
525.000000	20.254149
524.000000	20.293782
523.000000	20.321605
522.000000	20.365121
521.000000	20.395906
520.000000	20.425420
519.000000	20.450786
518.000000	20.523055
517.000000	20.558859
516.000000	20.599610
515.000000	20.645243
514.000000	20.699936
513.000000	20.729556
512.000000	20.798595
511.000000	20.860850
510.000000	20.895992
509.000000	20.913032
508.000000	20.969110
507.000000	21.022047
506.000000	20.990317
505.000000	21.073953
504.000000	21.058479
503.000000	21.033425
502.000000	21.003516
501.000000	20.976692
500.000000	20.917703
499.000000	20.889642
498.000000	20.814884
497.000000	20.707516
496.000000	20.639064
495.000000	20.540641
494.000000	20.449562
493.000000	20.328765
492.000000	20.246362
491.000000	20.124449
490.000000	20.069197
489.000000	19.970917
488.000000	19.913014
487.000000	19.840929
486.000000	19.765554
485.000000	19.698493
484.000000	19.703755
483.000000	19.653369
482.000000	19.652871
481.000000	19.627546
480.000000	19.621400
479.000000	19.646220
478.000000	19.676688
477.000000	19.710289
476.000000	19.723773
475.000000	19.767375
474.000000	19.802362
473.000000	19.832296
472.000000	19.888499
471.000000	19.934759
470.000000	19.998342
469.000000	20.055062
468.000000	20.104719
467.000000	20.176647
466.000000	20.211568
465.000000	20.251444
464.000000	20.350496
463.000000	20.388346
462.000000	20.449044
461.000000	20.482596
460.000000	20.544047
459.000000	20.565771
458.000000	20.612041
457.000000	20.658891
456.000000	20.698697
455.000000	20.743212
454.000000	20.779926
453.000000	20.809277
452.000000	20.873391
451.000000	20.905714
450.000000	20.960662
449.000000	20.974374
448.000000	21.007385
447.000000	21.056830
446.000000	21.096383
445.000000	21.126522
444.000000	21.143165
443.000000	21.175955
442.000000	21.243692
441.000000	21.295066
440.000000	21.350399
439.000000	21.376471
438.000000	21.461150
437.000000	21.517608
436.000000	21.593597
435.000000	21.642778
434.000000	21.665315
433.000000	21.748485
432.000000	21.832828
431.000000	21.883410
430.000000	21.970655
429.000000	22.022722
428.000000	22.052915
427.000000	22.112966
426.000000	22.160778
425.000000	22.228697
424.000000	22.283428
423.000000	22.352083
422.000000	22.410369
421.000000	22.472635
420.000000	22.521847
419.000000	22.576728
418.000000	22.616688
417.000000	22.688198
416.000000	22.754222
415.000000	22.782218
414.000000	22.850358
413.000000	22.911789
412.000000	22.946265
411.000000	22.964659
410.000000	22.946265
409.000000	22.975872
408.000000	22.976771
407.000000	22.918754
406.000000	22.826588
405.000000	22.689034
404.000000	22.554437
403.000000	22.360525
402.000000	22.118109
401.000000	21.836800
400.000000	21.473162
399.000000	21.088369
398.000000	20.662364
397.000000	20.190822
396.000000	19.641471
395.000000	19.045264
394.000000	18.444080
393.000000	17.825963
392.000000	17.181853
391.000000	16.528483
390.000000	15.904170
389.000000	15.309077
388.000000	14.700226
387.000000	14.115329
386.000000	13.594367
385.000000	13.107776
384.000000	12.630426
383.000000	12.201213
382.000000	11.835592
381.000000	11.469434
380.000000	11.148335
379.000000	10.831011
378.000000	10.409551
377.000000	10.066743
376.000000	9.827906
375.000000	9.590517
374.000000	9.370397
373.000000	9.156869
372.000000	8.965572
371.000000	8.780535
370.000000	8.589127
369.000000	8.439078
368.000000	8.267058
367.000000	8.118466
366.000000	7.969150
365.000000	7.830852
364.000000	7.715499
363.000000	7.583994
362.000000	7.466929
361.000000	7.345375
360.000000	7.237774
359.000000	7.130287
358.000000	7.005788
357.000000	6.925131
356.000000	6.829722
355.000000	6.740265
354.000000	6.672399
353.000000	6.596902
352.000000	6.540064
351.000000	6.480612
350.000000	6.435125
349.000000	6.389693
348.000000	6.338332
347.000000	6.271292
346.000000	6.271046
345.000000	6.262057
344.000000	6.220625
343.000000	6.167540
342.000000	6.163665
341.000000	6.141494
340.000000	6.150650
339.000000	6.162856
338.000000	6.151939
337.000000	6.163253
336.000000	6.163423
335.000000	6.174119
334.000000	6.193555
333.000000	6.188281
332.000000	6.209705
331.000000	6.259923
330.000000	6.273617
329.000000	6.307540
328.000000	6.299209
327.000000	6.309632
326.000000	6.363866
325.000000	6.388766
324.000000	6.408937
323.000000	6.433288
322.000000	6.485329
321.000000	6.493771
320.000000	6.500369
319.000000	6.403936
318.000000	6.350837
317.000000	6.394727
316.000000	6.407742
315.000000	6.476032
314.000000	6.512159
313.000000	6.508906
312.000000	6.551097
311.000000	6.562435
310.000000	6.546859
309.000000	6.586838
308.000000	6.646485
307.000000	6.647939
306.000000	6.636605
305.000000	6.651215
304.000000	6.621311
303.000000	6.622866
302.000000	6.637767
301.000000	6.612124
300.000000	6.576321
299.000000	6.624361
298.000000	6.561422
297.000000	6.590054
296.000000	6.604577
295.000000	6.584943
294.000000	6.572975
293.000000	6.568905
292.000000	6.557344
291.000000	6.563130
290.000000	6.587126
289.000000	6.579926
288.000000	6.567060
287.000000	6.581911
286.000000	6.574428
285.000000	6.593971
284.000000	6.602007
283.000000	6.604242
282.000000	6.544161
281.000000	6.577805
280.000000	6.596567
279.000000	6.606372
278.000000	6.628984
277.000000	6.634558
276.000000	6.665550
275.000000	6.664230
274.000000	6.686117
273.000000	6.722333
272.000000	6.700126
271.000000	6.709791
270.000000	6.684286
269.000000	6.676487
268.000000	6.712959
267.000000	6.702348
266.000000	6.745917
265.000000	6.746507
264.000000	6.721636
263.000000	6.758931
262.000000	6.792443
261.000000	6.792396
260.000000	6.830791
259.000000	6.820575
258.000000	6.878488
257.000000	6.805092
256.000000	6.836440
255.000000	6.829942
254.000000	6.843433
253.000000	6.849612
252.000000	6.861625
251.000000	6.885698
250.000000	6.886222
249.000000	6.884145
248.000000	6.884018
247.000000	6.885730
246.000000	6.912307
245.000000	6.950243
244.000000	6.943253
243.000000	6.927890
242.000000	6.978579
241.000000	6.991446
240.000000	7.024137
239.000000	7.029800
238.000000	7.033686
237.000000	7.030917
236.000000	7.090519
235.000000	7.102790
234.000000	7.121558
233.000000	7.161583
232.000000	7.175035
231.000000	7.143927
230.000000	7.205747
229.000000	7.222325
228.000000	7.253440
227.000000	7.261528
226.000000	7.318667
225.000000	7.340574
224.000000	7.362020
223.000000	7.419045
222.000000	7.416824
221.000000	7.416688
220.000000	7.458990
219.000000	7.525078
218.000000	7.511073
217.000000	7.560822
216.000000	7.620650
215.000000	7.652071
214.000000	7.653692
213.000000	7.663868
212.000000	7.717968
211.000000	7.805038
210.000000	7.828508
209.000000	7.836822
208.000000	7.962070
207.000000	7.945825
206.000000	7.995157
205.000000	8.068336
204.000000	8.196661
203.000000	8.249564
202.000000	8.351683
201.000000	8.283121
200.000000	8.516615
199.000000	8.661458
198.000000	8.736028
197.000000	8.831755
196.000000	9.029381
195.000000	9.280492
194.000000	9.479927
193.000000	10.125349
192.000000	10.594440
191.000000	11.354447
190.000000	15.433485
189.000000	22.913741
188.000000	41.063314
187.000000	82.088251
186.000000	98.617275
185.000000	99.928875
184.000000	97.044740
183.000000	96.691879
182.000000	100.173766
181.000000	100.514334
180.000000	99.649013
179.000000	101.799818
178.000000	100.013816
177.000000	98.747930
176.000000	101.328357
175.000000	93.035565
