PE UV       SUBTECH     SPECTRUM    ASCII       PEDS        4.00        
   -1
Sample2.Sample.Raw.ASC
25/05/30
11:25:10.00
25/06/06
09:00:45.00
tom jordan
JJC R1
175.000000
1
Lambda 1050
1050L1807051
PerkinElmer UV WinLab 6.4.0.973 / 2.02.06 Lambda 900 UV/VIS/NIR, Jan 28 2016 16:58:34

0
0
3350
0
0
UV/VIS
1
1
1
RBeamAtt,SBeamAtt,150mm sphere / downward view, WB InGaAs Detector
0
0
0
0
Program
Program
3350
3350
3350
0
1
 
 
 
0
 
860.8
319.2
860.8
Front
100
 
S:100 R:100
0
0
0
0
 
0
 
 
 
0
 
 
0
0
0
0
0
 
 
 
 
0
0


0
0
#HDR
-1
-1
#GR
nm
%T
1.0
0.0
2000.000000
-1.000000
1826
8
105.627257
6.106396
#DATA
2000.000000	10.145723
1999.000000	10.411349
1998.000000	10.144578
1997.000000	10.363155
1996.000000	10.131646
1995.000000	9.971925
1994.000000	9.924691
1993.000000	10.004744
1992.000000	10.461284
1991.000000	10.436743
1990.000000	10.495207
1989.000000	10.187415
1988.000000	10.148457
1987.000000	10.162113
1986.000000	10.029470
1985.000000	10.372442
1984.000000	9.756566
1983.000000	9.811739
1982.000000	9.927320
1981.000000	9.588353
1980.000000	10.056665
1979.000000	9.996363
1978.000000	10.164055
1977.000000	9.967586
1976.000000	10.446216
1975.000000	10.175412
1974.000000	9.953160
1973.000000	10.320126
1972.000000	10.361413
1971.000000	10.095109
1970.000000	10.323382
1969.000000	10.376049
1968.000000	10.187392
1967.000000	9.802752
1966.000000	9.978241
1965.000000	10.282980
1964.000000	10.192413
1963.000000	10.239977
1962.000000	10.127961
1961.000000	10.333037
1960.000000	10.091483
1959.000000	10.212075
1958.000000	9.690920
1957.000000	9.916856
1956.000000	10.137270
1955.000000	9.819085
1954.000000	9.907293
1953.000000	9.740629
1952.000000	9.999516
1951.000000	9.838321
1950.000000	10.309201
1949.000000	10.305380
1948.000000	10.293996
1947.000000	10.274554
1946.000000	9.996639
1945.000000	10.124580
1944.000000	10.461212
1943.000000	10.509813
1942.000000	10.243680
1941.000000	10.109810
1940.000000	10.189010
1939.000000	10.269966
1938.000000	10.565182
1937.000000	10.449416
1936.000000	10.298904
1935.000000	10.612238
1934.000000	10.345465
1933.000000	9.793614
1932.000000	10.200912
1931.000000	10.379968
1930.000000	10.044516
1929.000000	9.886464
1928.000000	10.182045
1927.000000	10.239883
1926.000000	10.230527
1925.000000	9.918317
1924.000000	9.958456
1923.000000	10.182725
1922.000000	10.195182
1921.000000	9.721270
1920.000000	10.180919
1919.000000	10.450859
1918.000000	10.800155
1917.000000	10.313665
1916.000000	10.062827
1915.000000	10.417656
1914.000000	10.646994
1913.000000	11.100205
1912.000000	10.634523
1911.000000	10.589391
1910.000000	10.814688
1909.000000	10.651162
1908.000000	10.270131
1907.000000	10.148200
1906.000000	10.363871
1905.000000	10.645645
1904.000000	10.539767
1903.000000	10.466657
1902.000000	10.558373
1901.000000	10.349301
1900.000000	10.043868
1899.000000	10.222144
1898.000000	10.303790
1897.000000	10.384749
1896.000000	10.370722
1895.000000	10.356500
1894.000000	10.453964
1893.000000	10.248800
1892.000000	10.157785
1891.000000	10.460321
1890.000000	10.437969
1889.000000	10.367332
1888.000000	10.417680
1887.000000	10.189691
1886.000000	10.262189
1885.000000	10.365351
1884.000000	10.287148
1883.000000	10.275596
1882.000000	10.220144
1881.000000	10.233637
1880.000000	10.275785
1879.000000	10.406723
1878.000000	10.289257
1877.000000	10.212781
1876.000000	10.206762
1875.000000	10.297932
1874.000000	10.403944
1873.000000	10.450763
1872.000000	10.461959
1871.000000	10.251561
1870.000000	10.406795
1869.000000	10.661345
1868.000000	10.407778
1867.000000	10.199221
1866.000000	10.227441
1865.000000	10.435446
1864.000000	10.591220
1863.000000	10.333965
1862.000000	10.416984
1861.000000	10.292953
1860.000000	10.289067
1859.000000	10.512839
1858.000000	10.551374
1857.000000	10.594415
1856.000000	10.360626
1855.000000	10.442248
1854.000000	10.223674
1853.000000	10.436695
1852.000000	10.536079
1851.000000	10.330872
1850.000000	10.538505
1849.000000	10.625735
1848.000000	10.513952
1847.000000	10.347228
1846.000000	10.374376
1845.000000	10.325545
1844.000000	10.135893
1843.000000	10.393313
1842.000000	10.324452
1841.000000	10.210335
1840.000000	10.364372
1839.000000	10.280045
1838.000000	10.395874
1837.000000	10.265332
1836.000000	10.283477
1835.000000	10.309984
1834.000000	10.429248
1833.000000	10.548580
1832.000000	10.410630
1831.000000	10.332086
1830.000000	10.229938
1829.000000	10.258220
1828.000000	10.390083
1827.000000	10.330397
1826.000000	10.392451
1825.000000	10.398100
1824.000000	10.330111
1823.000000	10.258503
1822.000000	10.239317
1821.000000	10.342487
1820.000000	10.318439
1819.000000	10.403800
1818.000000	10.357621
1817.000000	10.224851
1816.000000	10.327067
1815.000000	10.335084
1814.000000	10.374066
1813.000000	10.385108
1812.000000	10.348467
1811.000000	10.286296
1810.000000	10.242359
1809.000000	10.292219
1808.000000	10.246322
1807.000000	10.122808
1806.000000	10.337416
1805.000000	10.273017
1804.000000	10.257251
1803.000000	10.383864
1802.000000	10.364444
1801.000000	10.294921
1800.000000	10.312192
1799.000000	10.505990
1798.000000	10.373803
1797.000000	10.404231
1796.000000	10.404016
1795.000000	10.341368
1794.000000	10.315042
1793.000000	10.204694
1792.000000	10.261007
1791.000000	10.338154
1790.000000	10.399465
1789.000000	10.422502
1788.000000	10.447900
1787.000000	10.504104
1786.000000	10.353543
1785.000000	10.369672
1784.000000	10.240732
1783.000000	10.275950
1782.000000	10.300327
1781.000000	10.490326
1780.000000	10.518601
1779.000000	10.453868
1778.000000	10.638711
1777.000000	10.409455
1776.000000	10.247171
1775.000000	10.472178
1774.000000	10.435782
1773.000000	10.373158
1772.000000	10.437344
1771.000000	10.326235
1770.000000	10.341368
1769.000000	10.350516
1768.000000	10.427255
1767.000000	10.512524
1766.000000	10.572167
1765.000000	10.525773
1764.000000	10.478521
1763.000000	10.406412
1762.000000	10.395228
1761.000000	10.627571
1760.000000	10.451726
1759.000000	10.321338
1758.000000	10.390800
1757.000000	10.457070
1756.000000	10.581762
1755.000000	10.483324
1754.000000	10.439315
1753.000000	10.500887
1752.000000	10.530573
1751.000000	10.706191
1750.000000	10.375117
1749.000000	10.499944
1748.000000	10.353233
1747.000000	10.354592
1746.000000	10.512863
1745.000000	10.535472
1744.000000	10.566691
1743.000000	10.442873
1742.000000	10.378820
1741.000000	10.474396
1740.000000	10.460273
1739.000000	10.422382
1738.000000	10.646871
1737.000000	10.698503
1736.000000	10.767478
1735.000000	10.507418
1734.000000	10.521532
1733.000000	10.529797
1732.000000	10.439531
1731.000000	10.526597
1730.000000	10.562458
1729.000000	10.515139
1728.000000	10.498736
1727.000000	10.674683
1726.000000	10.654572
1725.000000	10.517318
1724.000000	10.440204
1723.000000	10.565231
1722.000000	10.670776
1721.000000	10.589586
1720.000000	10.494216
1719.000000	10.574772
1718.000000	10.633715
1717.000000	10.680879
1716.000000	10.783879
1715.000000	10.781545
1714.000000	10.685774
1713.000000	10.595489
1712.000000	10.666133
1711.000000	10.618838
1710.000000	10.624953
1709.000000	10.487307
1708.000000	10.644052
1707.000000	10.532198
1706.000000	10.578644
1705.000000	10.572727
1704.000000	10.647803
1703.000000	10.666035
1702.000000	10.564039
1701.000000	10.740587
1700.000000	10.708016
1699.000000	10.718278
1698.000000	10.697591
1697.000000	10.738040
1696.000000	10.782588
1695.000000	10.715045
1694.000000	10.636433
1693.000000	10.607865
1692.000000	10.692420
1691.000000	10.807369
1690.000000	10.770875
1689.000000	10.709594
1688.000000	10.620330
1687.000000	10.588636
1686.000000	10.531882
1685.000000	10.568005
1684.000000	10.671095
1683.000000	10.669695
1682.000000	10.687964
1681.000000	10.647950
1680.000000	10.717735
1679.000000	10.703283
1678.000000	10.643195
1677.000000	10.630997
1676.000000	10.645940
1675.000000	10.691115
1674.000000	10.749147
1673.000000	10.751697
1672.000000	10.793269
1671.000000	10.768321
1670.000000	10.682871
1669.000000	10.668221
1668.000000	10.646626
1667.000000	10.727413
1666.000000	10.795730
1665.000000	10.826648
1664.000000	10.870487
1663.000000	10.869211
1662.000000	10.697985
1661.000000	10.701903
1660.000000	10.687669
1659.000000	10.672373
1658.000000	10.730180
1657.000000	10.734010
1656.000000	10.852005
1655.000000	10.845735
1654.000000	10.803140
1653.000000	10.750310
1652.000000	10.764776
1651.000000	10.770454
1650.000000	10.804384
1649.000000	10.778616
1648.000000	10.667287
1647.000000	10.721857
1646.000000	10.770131
1645.000000	10.782538
1644.000000	10.802120
1643.000000	10.826398
1642.000000	10.781173
1641.000000	10.824803
1640.000000	10.905335
1639.000000	10.824280
1638.000000	10.830014
1637.000000	10.817527
1636.000000	10.825451
1635.000000	10.818499
1634.000000	10.812522
1633.000000	10.877773
1632.000000	10.886443
1631.000000	10.927530
1630.000000	10.899335
1629.000000	10.859004
1628.000000	10.808539
1627.000000	10.836000
1626.000000	10.897001
1625.000000	10.964858
1624.000000	10.928561
1623.000000	10.935358
1622.000000	11.007711
1621.000000	10.875068
1620.000000	10.924637
1619.000000	10.944073
1618.000000	10.944855
1617.000000	10.915032
1616.000000	10.808017
1615.000000	10.873992
1614.000000	10.864982
1613.000000	10.817976
1612.000000	10.841566
1611.000000	10.945359
1610.000000	10.959809
1609.000000	10.974405
1608.000000	10.922624
1607.000000	10.954486
1606.000000	10.914579
1605.000000	10.940017
1604.000000	11.004923
1603.000000	10.901268
1602.000000	10.869936
1601.000000	10.990565
1600.000000	10.933973
1599.000000	10.828617
1598.000000	10.877949
1597.000000	10.906666
1596.000000	10.923580
1595.000000	10.927605
1594.000000	10.832532
1593.000000	10.933268
1592.000000	11.036618
1591.000000	11.016129
1590.000000	10.876296
1589.000000	11.059487
1588.000000	11.049255
1587.000000	11.043202
1586.000000	11.049230
1585.000000	10.989628
1584.000000	10.972283
1583.000000	10.920437
1582.000000	11.014708
1581.000000	11.013212
1580.000000	10.911589
1579.000000	11.014886
1578.000000	10.977514
1577.000000	10.982925
1576.000000	10.908499
1575.000000	10.940622
1574.000000	10.926146
1573.000000	11.055999
1572.000000	11.019427
1571.000000	10.945712
1570.000000	11.023741
1569.000000	10.994690
1568.000000	11.021507
1567.000000	11.183198
1566.000000	11.102071
1565.000000	11.076180
1564.000000	11.068429
1563.000000	11.138020
1562.000000	11.110536
1561.000000	11.054294
1560.000000	11.094124
1559.000000	11.106699
1558.000000	11.078424
1557.000000	11.148258
1556.000000	11.107492
1555.000000	11.150311
1554.000000	11.106111
1553.000000	11.212566
1552.000000	11.044117
1551.000000	11.086131
1550.000000	11.109845
1549.000000	11.102327
1548.000000	11.067690
1547.000000	11.086131
1546.000000	11.125870
1545.000000	11.113120
1544.000000	11.116677
1543.000000	11.113734
1542.000000	11.201908
1541.000000	11.148591
1540.000000	11.151826
1539.000000	11.150979
1538.000000	11.120799
1537.000000	11.110280
1536.000000	11.206036
1535.000000	11.163053
1534.000000	11.065932
1533.000000	11.096372
1532.000000	11.220004
1531.000000	11.165316
1530.000000	11.217266
1529.000000	11.261572
1528.000000	11.323743
1527.000000	11.102454
1526.000000	11.260249
1525.000000	11.282855
1524.000000	11.183378
1523.000000	11.326950
1522.000000	11.278881
1521.000000	11.331516
1520.000000	11.245791
1519.000000	11.254132
1518.000000	11.261079
1517.000000	11.257734
1516.000000	11.258720
1515.000000	11.190410
1514.000000	11.191132
1513.000000	11.233601
1512.000000	11.288182
1511.000000	11.235567
1510.000000	11.235878
1509.000000	11.388984
1508.000000	11.372763
1507.000000	11.401028
1506.000000	11.242658
1505.000000	11.217472
1504.000000	11.199432
1503.000000	11.244315
1502.000000	11.310583
1501.000000	11.348383
1500.000000	11.414950
1499.000000	11.483757
1498.000000	11.393050
1497.000000	11.324082
1496.000000	11.292263
1495.000000	11.359913
1494.000000	11.325047
1493.000000	11.400791
1492.000000	11.366192
1491.000000	11.343733
1490.000000	11.334412
1489.000000	11.357637
1488.000000	11.496668
1487.000000	11.439947
1486.000000	11.475299
1485.000000	11.371297
1484.000000	11.389693
1483.000000	11.380701
1482.000000	11.394414
1481.000000	11.449803
1480.000000	11.333473
1479.000000	11.445295
1478.000000	11.351859
1477.000000	11.397983
1476.000000	11.376378
1475.000000	11.481219
1474.000000	11.454813
1473.000000	11.414818
1472.000000	11.411270
1471.000000	11.388250
1470.000000	11.530443
1469.000000	11.579239
1468.000000	11.583799
1467.000000	11.512562
1466.000000	11.521367
1465.000000	11.484683
1464.000000	11.464418
1463.000000	11.489285
1462.000000	11.475219
1461.000000	11.535383
1460.000000	11.535436
1459.000000	11.606626
1458.000000	11.525559
1457.000000	11.405754
1456.000000	11.535276
1455.000000	11.534878
1454.000000	11.529541
1453.000000	11.590896
1452.000000	11.613015
1451.000000	11.591029
1450.000000	11.561655
1449.000000	11.518873
1448.000000	11.527125
1447.000000	11.594152
1446.000000	11.612962
1445.000000	11.589828
1444.000000	11.638098
1443.000000	11.543566
1442.000000	11.587880
1441.000000	11.588814
1440.000000	11.617589
1439.000000	11.638151
1438.000000	11.640671
1437.000000	11.625617
1436.000000	11.592124
1435.000000	11.561122
1434.000000	11.595487
1433.000000	11.605718
1432.000000	11.676105
1431.000000	11.638098
1430.000000	11.613978
1429.000000	11.613470
1428.000000	11.611652
1427.000000	11.623020
1426.000000	11.636276
1425.000000	11.712672
1424.000000	11.726138
1423.000000	11.755199
1422.000000	11.707576
1421.000000	11.682317
1420.000000	11.790630
1419.000000	11.780589
1418.000000	11.737754
1417.000000	11.713886
1416.000000	11.757446
1415.000000	11.763702
1414.000000	11.724977
1413.000000	11.750274
1412.000000	11.762049
1411.000000	11.713913
1410.000000	11.733322
1409.000000	11.787698
1408.000000	11.837282
1407.000000	11.808045
1406.000000	11.824451
1405.000000	11.833440
1404.000000	11.787779
1403.000000	11.785717
1402.000000	11.804212
1401.000000	11.768605
1400.000000	11.797854
1399.000000	11.892605
1398.000000	11.854712
1397.000000	11.870746
1396.000000	11.865772
1395.000000	11.816912
1394.000000	11.851409
1393.000000	11.858971
1392.000000	11.848435
1391.000000	11.811852
1390.000000	11.820477
1389.000000	11.794214
1388.000000	11.797582
1387.000000	11.823607
1386.000000	11.835211
1385.000000	11.848763
1384.000000	11.844589
1383.000000	11.930592
1382.000000	11.945463
1381.000000	11.851519
1380.000000	11.885351
1379.000000	11.920597
1378.000000	11.914093
1377.000000	11.874846
1376.000000	11.857551
1375.000000	11.901974
1374.000000	11.907923
1373.000000	11.957627
1372.000000	11.964154
1371.000000	11.928779
1370.000000	11.955837
1369.000000	11.941723
1368.000000	11.999468
1367.000000	11.996540
1366.000000	11.946454
1365.000000	11.910171
1364.000000	11.915959
1363.000000	11.994965
1362.000000	11.968177
1361.000000	11.937379
1360.000000	11.983178
1359.000000	12.048722
1358.000000	12.028736
1357.000000	12.037270
1356.000000	12.039238
1355.000000	11.978074
1354.000000	12.030177
1353.000000	12.040125
1352.000000	11.979646
1351.000000	12.041622
1350.000000	11.998142
1349.000000	12.006737
1348.000000	12.006488
1347.000000	12.025247
1346.000000	12.036438
1345.000000	12.065408
1344.000000	12.078444
1343.000000	12.058159
1342.000000	12.093444
1341.000000	12.086039
1340.000000	12.127548
1339.000000	12.118699
1338.000000	12.140456
1337.000000	12.103111
1336.000000	12.068131
1335.000000	12.100352
1334.000000	12.138080
1333.000000	12.162112
1332.000000	12.130397
1331.000000	12.099405
1330.000000	12.107738
1329.000000	12.118364
1328.000000	12.134475
1327.000000	12.103445
1326.000000	12.133833
1325.000000	12.193995
1324.000000	12.163736
1323.000000	12.129196
1322.000000	12.179543
1321.000000	12.188858
1320.000000	12.214227
1319.000000	12.188942
1318.000000	12.245372
1317.000000	12.253044
1316.000000	12.243596
1315.000000	12.221739
1314.000000	12.164241
1313.000000	12.192619
1312.000000	12.248023
1311.000000	12.264928
1310.000000	12.291673
1309.000000	12.247177
1308.000000	12.284628
1307.000000	12.284656
1306.000000	12.263064
1305.000000	12.244273
1304.000000	12.318391
1303.000000	12.297023
1302.000000	12.271397
1301.000000	12.333519
1300.000000	12.243624
1299.000000	12.329288
1298.000000	12.316860
1297.000000	12.306088
1296.000000	12.370293
1295.000000	12.349802
1294.000000	12.348096
1293.000000	12.307504
1292.000000	12.371347
1291.000000	12.389706
1290.000000	12.346504
1289.000000	12.362776
1288.000000	12.383260
1287.000000	12.366591
1286.000000	12.319952
1285.000000	12.421384
1284.000000	12.356031
1283.000000	12.426133
1282.000000	12.417009
1281.000000	12.388023
1280.000000	12.362406
1279.000000	12.339342
1278.000000	12.447066
1277.000000	12.468781
1276.000000	12.473318
1275.000000	12.453258
1274.000000	12.466197
1273.000000	12.481679
1272.000000	12.431485
1271.000000	12.524056
1270.000000	12.482598
1269.000000	12.516474
1268.000000	12.540909
1267.000000	12.570397
1266.000000	12.511979
1265.000000	12.549199
1264.000000	12.503742
1263.000000	12.567532
1262.000000	12.494360
1261.000000	12.604105
1260.000000	12.593574
1259.000000	12.625076
1258.000000	12.548188
1257.000000	12.577606
1256.000000	12.654529
1255.000000	12.633887
1254.000000	12.673337
1253.000000	12.647422
1252.000000	12.641046
1251.000000	12.624233
1250.000000	12.638688
1249.000000	12.656773
1248.000000	12.648092
1247.000000	12.667094
1246.000000	12.687907
1245.000000	12.670449
1244.000000	12.674009
1243.000000	12.662195
1242.000000	12.694979
1241.000000	12.630833
1240.000000	12.719382
1239.000000	12.726354
1238.000000	12.672083
1237.000000	12.741777
1236.000000	12.709750
1235.000000	12.740398
1234.000000	12.779475
1233.000000	12.751786
1232.000000	12.760568
1231.000000	12.753812
1230.000000	12.768063
1229.000000	12.784360
1228.000000	12.806133
1227.000000	12.783507
1226.000000	12.776532
1225.000000	12.843577
1224.000000	12.818051
1223.000000	12.818848
1222.000000	12.830571
1221.000000	12.857070
1220.000000	12.828858
1219.000000	12.826554
1218.000000	12.838285
1217.000000	12.840886
1216.000000	12.811029
1215.000000	12.857366
1214.000000	12.854494
1213.000000	12.869539
1212.000000	12.879559
1211.000000	12.869539
1210.000000	12.880123
1209.000000	12.910914
1208.000000	12.921800
1207.000000	12.948367
1206.000000	12.946310
1205.000000	12.926501
1204.000000	12.932039
1203.000000	12.937966
1202.000000	12.970001
1201.000000	12.970897
1200.000000	12.972868
1199.000000	12.955972
1198.000000	12.997146
1197.000000	13.010231
1196.000000	12.987992
1195.000000	12.994184
1194.000000	12.996548
1193.000000	13.032478
1192.000000	13.042745
1191.000000	13.090734
1190.000000	13.082839
1189.000000	13.079616
1188.000000	13.109255
1187.000000	13.070343
1186.000000	13.069350
1185.000000	13.068086
1184.000000	13.087479
1183.000000	13.099267
1182.000000	13.111277
1181.000000	13.095739
1180.000000	13.104909
1179.000000	13.137417
1178.000000	13.159609
1177.000000	13.175648
1176.000000	13.163276
1175.000000	13.162367
1174.000000	13.169795
1173.000000	13.165429
1172.000000	13.184176
1171.000000	13.174344
1170.000000	13.139112
1169.000000	13.144044
1168.000000	13.170431
1167.000000	13.202373
1166.000000	13.202373
1165.000000	13.214812
1164.000000	13.235428
1163.000000	13.231741
1162.000000	13.220991
1161.000000	13.243934
1160.000000	13.278347
1159.000000	13.299276
1158.000000	13.289633
1157.000000	13.261083
1156.000000	13.288440
1155.000000	13.308926
1154.000000	13.314167
1153.000000	13.309968
1152.000000	13.330793
1151.000000	13.330180
1150.000000	13.296000
1149.000000	13.292510
1148.000000	13.337149
1147.000000	13.347256
1146.000000	13.306689
1145.000000	13.339913
1144.000000	13.399327
1143.000000	13.432226
1142.000000	13.395564
1141.000000	13.370203
1140.000000	13.342524
1139.000000	13.356602
1138.000000	13.389119
1137.000000	13.444665
1136.000000	13.478358
1135.000000	13.479445
1134.000000	13.513380
1133.000000	13.511078
1132.000000	13.517270
1131.000000	13.477272
1130.000000	13.447080
1129.000000	13.493388
1128.000000	13.517675
1127.000000	13.527857
1126.000000	13.533652
1125.000000	13.532530
1124.000000	13.499603
1123.000000	13.510891
1122.000000	13.529321
1121.000000	13.537111
1120.000000	13.529975
1119.000000	13.598124
1118.000000	13.564881
1117.000000	13.514998
1116.000000	13.584855
1115.000000	13.578413
1114.000000	13.603793
1113.000000	13.635215
1112.000000	13.625831
1111.000000	13.586513
1110.000000	13.623227
1109.000000	13.635058
1108.000000	13.745420
1107.000000	13.721102
1106.000000	13.668473
1105.000000	13.653469
1104.000000	13.674738
1103.000000	13.719365
1102.000000	13.737636
1101.000000	13.730995
1100.000000	13.703894
1099.000000	13.749851
1098.000000	13.749281
1097.000000	13.733018
1096.000000	13.691215
1095.000000	13.712322
1094.000000	13.696418
1093.000000	13.798154
1092.000000	13.828912
1091.000000	13.851602
1090.000000	13.811473
1089.000000	13.754538
1088.000000	13.766958
1087.000000	13.785579
1086.000000	13.825569
1085.000000	13.792183
1084.000000	13.864014
1083.000000	13.909131
1082.000000	13.814272
1081.000000	13.910124
1080.000000	13.804256
1079.000000	13.849880
1078.000000	13.820158
1077.000000	13.895846
1076.000000	13.820921
1075.000000	13.928777
1074.000000	13.943731
1073.000000	13.935931
1072.000000	13.980928
1071.000000	13.917941
1070.000000	13.960919
1069.000000	13.873627
1068.000000	14.053516
1067.000000	13.999161
1066.000000	13.923935
1065.000000	14.013448
1064.000000	13.959344
1063.000000	14.053840
1062.000000	13.985081
1061.000000	14.029784
1060.000000	14.030011
1059.000000	14.023648
1058.000000	14.047046
1057.000000	14.059957
1056.000000	14.071196
1055.000000	14.128401
1054.000000	14.114159
1053.000000	14.139270
1052.000000	14.172648
1051.000000	14.151778
1050.000000	14.082670
1049.000000	14.132045
1048.000000	14.099120
1047.000000	14.103828
1046.000000	14.157938
1045.000000	14.180645
1044.000000	14.169483
1043.000000	14.100516
1042.000000	14.213859
1041.000000	14.121506
1040.000000	14.157938
1039.000000	14.165046
1038.000000	14.188125
1037.000000	14.215561
1036.000000	14.256667
1035.000000	14.121018
1034.000000	14.292855
1033.000000	14.179633
1032.000000	14.256240
1031.000000	14.244821
1030.000000	14.286472
1029.000000	14.394613
1028.000000	14.311034
1027.000000	14.338179
1026.000000	14.268161
1025.000000	14.252039
1024.000000	14.319505
1023.000000	14.240066
1022.000000	14.298781
1021.000000	14.287854
1020.000000	14.469649
1019.000000	14.394878
1018.000000	14.491355
1017.000000	14.287393
1016.000000	14.382024
1015.000000	14.345940
1014.000000	14.337321
1013.000000	14.407280
1012.000000	14.414680
1011.000000	14.507748
1010.000000	14.491322
1009.000000	14.474481
1008.000000	14.519578
1007.000000	14.478981
1006.000000	14.565721
1005.000000	14.577398
1004.000000	14.454098
1003.000000	14.606562
1002.000000	14.592308
1001.000000	14.506178
1000.000000	14.539016
999.000000	14.463853
998.000000	14.588344
997.000000	14.591569
996.000000	14.585254
995.000000	14.529377
994.000000	14.548359
993.000000	14.559786
992.000000	14.589889
991.000000	14.540187
990.000000	14.565755
989.000000	14.652745
988.000000	14.673543
987.000000	14.590729
986.000000	14.584146
985.000000	14.585321
984.000000	14.558915
983.000000	14.616891
982.000000	14.645527
981.000000	14.663309
980.000000	14.655647
979.000000	14.669523
978.000000	14.766481
977.000000	14.607806
976.000000	14.711705
975.000000	14.831429
974.000000	14.797727
973.000000	14.851694
972.000000	14.757303
971.000000	14.669523
970.000000	14.632752
969.000000	14.754143
968.000000	14.826717
967.000000	14.868769
966.000000	14.799635
965.000000	14.848207
964.000000	14.943902
963.000000	15.113046
962.000000	14.912725
961.000000	14.869453
960.000000	14.918563
959.000000	14.893954
958.000000	14.896217
957.000000	14.882881
956.000000	14.907850
955.000000	14.853062
954.000000	14.778726
953.000000	14.803793
952.000000	14.933857
951.000000	14.898138
950.000000	14.984905
949.000000	15.013294
948.000000	14.963321
947.000000	14.907781
946.000000	15.089957
945.000000	15.140214
944.000000	15.017720
943.000000	15.120982
942.000000	15.294913
941.000000	15.360275
940.000000	15.123245
939.000000	14.927910
938.000000	15.141748
937.000000	15.102262
936.000000	15.125857
935.000000	15.132616
934.000000	14.942044
933.000000	15.088463
932.000000	15.166173
931.000000	15.141678
930.000000	15.061978
929.000000	15.139237
928.000000	15.226041
927.000000	15.244845
926.000000	15.185671
925.000000	15.065238
924.000000	15.058683
923.000000	15.146664
922.000000	15.259806
921.000000	15.392175
920.000000	15.333101
919.000000	15.301500
918.000000	15.231546
917.000000	15.258962
916.000000	15.476438
915.000000	15.361796
914.000000	15.171412
913.000000	15.265815
912.000000	15.336456
911.000000	15.402209
910.000000	15.504865
909.000000	15.475725
908.000000	15.164113
907.000000	15.135334
906.000000	15.471057
905.000000	15.195220
904.000000	15.122967
903.000000	15.357163
902.000000	15.545797
901.000000	15.757997
900.000000	15.541932
899.000000	15.456388
898.000000	15.394869
897.000000	15.446070
896.000000	15.235826
895.000000	15.392459
894.000000	15.584756
893.000000	15.352779
892.000000	15.240247
891.000000	15.563383
890.000000	15.840577
889.000000	15.527409
888.000000	15.395330
887.000000	15.582459
886.000000	15.936649
885.000000	15.990646
884.000000	15.797923
883.000000	15.935695
882.000000	15.577580
881.000000	15.588237
880.000000	15.876838
879.000000	15.753425
878.000000	15.806547
877.000000	15.980155
876.000000	16.190789
875.000000	15.171622
874.000000	15.188224
873.000000	15.824682
872.000000	15.741278
871.000000	14.680201
870.000000	15.039867
869.000000	15.438816
868.000000	16.190938
867.000000	16.621454
866.000000	16.628267
865.000000	16.476615
864.000000	15.062671
863.000000	14.866714
862.000000	15.522119
861.000000	15.338292
860.000000	15.191162
859.000000	14.635717
858.000000	14.479314
857.000000	14.777943
856.000000	14.722006
855.000000	15.095726
854.000000	15.044231
853.000000	14.817059
852.000000	14.816342
851.000000	14.862676
850.000000	14.998748
849.000000	15.018031
848.000000	15.038517
847.000000	15.076239
846.000000	15.046448
845.000000	15.116248
844.000000	15.062463
843.000000	15.055320
842.000000	15.112002
841.000000	15.005173
840.000000	15.178051
839.000000	15.216053
838.000000	15.232564
837.000000	15.169421
836.000000	15.142863
835.000000	15.247899
834.000000	15.214021
833.000000	15.251656
832.000000	15.237089
831.000000	15.337021
830.000000	15.334513
829.000000	15.369828
828.000000	15.318033
827.000000	15.413952
826.000000	15.369332
825.000000	15.381901
824.000000	15.332713
823.000000	15.357022
822.000000	15.351506
821.000000	15.373509
820.000000	15.440772
819.000000	15.436684
818.000000	15.457277
817.000000	15.523977
816.000000	15.494837
815.000000	15.537066
814.000000	15.610794
813.000000	15.613850
812.000000	15.574747
811.000000	15.504544
810.000000	15.647249
809.000000	15.681803
808.000000	15.682706
807.000000	15.654276
806.000000	15.643935
805.000000	15.684548
804.000000	15.683067
803.000000	15.716434
802.000000	15.694410
801.000000	15.749146
800.000000	15.751031
799.000000	15.730300
798.000000	15.785379
797.000000	15.738415
796.000000	15.786614
795.000000	15.814811
794.000000	15.852180
793.000000	15.927331
792.000000	15.896445
791.000000	15.875119
790.000000	15.918092
789.000000	15.873036
788.000000	15.907063
787.000000	15.961695
786.000000	15.995175
785.000000	15.930265
784.000000	15.895017
783.000000	15.983063
782.000000	16.040060
781.000000	16.008661
780.000000	16.024999
779.000000	16.027619
778.000000	16.078036
777.000000	16.081887
776.000000	16.102340
775.000000	16.105418
774.000000	16.142099
773.000000	16.167095
772.000000	16.166053
771.000000	16.192765
770.000000	16.174393
769.000000	16.152956
768.000000	16.254327
767.000000	16.241308
766.000000	16.297763
765.000000	16.261140
764.000000	16.270878
763.000000	16.291572
762.000000	16.287371
761.000000	16.326910
760.000000	16.347336
759.000000	16.357427
758.000000	16.346734
757.000000	16.379325
756.000000	16.399024
755.000000	16.466034
754.000000	16.448299
753.000000	16.472708
752.000000	16.458036
751.000000	16.458718
750.000000	16.464745
749.000000	16.467095
748.000000	16.500002
747.000000	16.593767
746.000000	16.605540
745.000000	16.632863
744.000000	16.594876
743.000000	16.600035
742.000000	16.656280
741.000000	16.671935
740.000000	16.660077
739.000000	16.728038
738.000000	16.684723
737.000000	16.754713
736.000000	16.744686
735.000000	16.791172
734.000000	16.763512
733.000000	16.762045
732.000000	16.816515
731.000000	16.820465
730.000000	16.843526
729.000000	16.877768
728.000000	16.919285
727.000000	16.921544
726.000000	16.924272
725.000000	16.963208
724.000000	16.967076
723.000000	16.980364
722.000000	17.017666
721.000000	17.021154
720.000000	17.037231
719.000000	17.037427
718.000000	17.056464
717.000000	17.077960
716.000000	17.126909
715.000000	17.137955
714.000000	17.133694
713.000000	17.173705
712.000000	17.199349
711.000000	17.216862
710.000000	17.272293
709.000000	17.254843
708.000000	17.247057
707.000000	17.285025
706.000000	17.305813
705.000000	17.324631
704.000000	17.333889
703.000000	17.352338
702.000000	17.383651
701.000000	17.409288
700.000000	17.445081
699.000000	17.455930
698.000000	17.463167
697.000000	17.484572
696.000000	17.514551
695.000000	17.522134
694.000000	17.532062
693.000000	17.559979
692.000000	17.577819
691.000000	17.592923
690.000000	17.627268
689.000000	17.636971
688.000000	17.654036
687.000000	17.682554
686.000000	17.693877
685.000000	17.709365
684.000000	17.726908
683.000000	17.739730
682.000000	17.778946
681.000000	17.803361
680.000000	17.817386
679.000000	17.841690
678.000000	17.876192
677.000000	17.887926
676.000000	17.885579
675.000000	17.921650
674.000000	17.958539
673.000000	17.959945
672.000000	17.987715
671.000000	18.006612
670.000000	18.024491
669.000000	18.063587
668.000000	18.094934
667.000000	18.119408
666.000000	18.116988
665.000000	18.137023
664.000000	18.195207
663.000000	18.204846
662.000000	18.205139
661.000000	18.211344
660.000000	18.218180
659.000000	18.253746
658.000000	18.295699
657.000000	18.331247
656.000000	18.351856
655.000000	18.371855
654.000000	18.396915
653.000000	18.418913
652.000000	18.436777
651.000000	18.457930
650.000000	18.472812
649.000000	18.484938
648.000000	18.508618
647.000000	18.557480
646.000000	18.596448
645.000000	18.603729
644.000000	18.617484
643.000000	18.634339
642.000000	18.643524
641.000000	18.680952
640.000000	18.713801
639.000000	18.726085
638.000000	18.755386
637.000000	18.786419
636.000000	18.807800
635.000000	18.822010
634.000000	18.845081
633.000000	18.855107
632.000000	18.874784
631.000000	18.909933
630.000000	18.943359
629.000000	18.956711
628.000000	18.961426
627.000000	18.986023
626.000000	19.023876
625.000000	19.058600
624.000000	19.079676
623.000000	19.130354
622.000000	19.151465
621.000000	19.155699
620.000000	19.191857
619.000000	19.212417
618.000000	19.227021
617.000000	19.259810
616.000000	19.282396
615.000000	19.293632
614.000000	19.319861
613.000000	19.339534
612.000000	19.370463
611.000000	19.396975
610.000000	19.418514
609.000000	19.455437
608.000000	19.480630
607.000000	19.499030
606.000000	19.487270
605.000000	19.504822
604.000000	19.544205
603.000000	19.573388
602.000000	19.576723
601.000000	19.588221
600.000000	19.597740
599.000000	19.615709
598.000000	19.642918
597.000000	19.604240
596.000000	19.605052
595.000000	19.606497
594.000000	19.589304
593.000000	19.576633
592.000000	19.558881
591.000000	19.537590
590.000000	19.499658
589.000000	19.452660
588.000000	19.422226
587.000000	19.362347
586.000000	19.307142
585.000000	19.251563
584.000000	19.186997
583.000000	19.109090
582.000000	19.076821
581.000000	19.020328
580.000000	18.983968
579.000000	18.945235
578.000000	18.903273
577.000000	18.890611
576.000000	18.878218
575.000000	18.859883
574.000000	18.822703
573.000000	18.830463
572.000000	18.841783
571.000000	18.842998
570.000000	18.876132
569.000000	18.897572
568.000000	18.917468
567.000000	18.945759
566.000000	18.985323
565.000000	18.985411
564.000000	18.994856
563.000000	19.036846
562.000000	19.037241
561.000000	19.072341
560.000000	19.084729
559.000000	19.125817
558.000000	19.148819
557.000000	19.206357
556.000000	19.218080
555.000000	19.258081
554.000000	19.289857
553.000000	19.321552
552.000000	19.364888
551.000000	19.393849
550.000000	19.431351
549.000000	19.462786
548.000000	19.509134
547.000000	19.539435
546.000000	19.572937
545.000000	19.598598
544.000000	19.630845
543.000000	19.698765
542.000000	19.731450
541.000000	19.778256
540.000000	19.793792
539.000000	19.824717
538.000000	19.885064
537.000000	19.888911
536.000000	19.896560
535.000000	19.946238
534.000000	19.960159
533.000000	19.996040
532.000000	20.035676
531.000000	20.071415
530.000000	20.079782
529.000000	20.120742
528.000000	20.148513
527.000000	20.148884
526.000000	20.190404
525.000000	20.233453
524.000000	20.261706
523.000000	20.288783
522.000000	20.337661
521.000000	20.366153
520.000000	20.403656
519.000000	20.428948
518.000000	20.479766
517.000000	20.508552
516.000000	20.584580
515.000000	20.617642
514.000000	20.666551
513.000000	20.712857
512.000000	20.780357
511.000000	20.813446
510.000000	20.847549
509.000000	20.920449
508.000000	20.927917
507.000000	20.979059
506.000000	20.966117
505.000000	21.001291
504.000000	21.047233
503.000000	20.976306
502.000000	20.972683
501.000000	20.931097
500.000000	20.887045
499.000000	20.840781
498.000000	20.790982
497.000000	20.681736
496.000000	20.617357
495.000000	20.540641
494.000000	20.425749
493.000000	20.290372
492.000000	20.198541
491.000000	20.094768
490.000000	20.043474
489.000000	19.957861
488.000000	19.876779
487.000000	19.799080
486.000000	19.730314
485.000000	19.722865
484.000000	19.668308
483.000000	19.619187
482.000000	19.615483
481.000000	19.610199
480.000000	19.600674
479.000000	19.620813
478.000000	19.651875
477.000000	19.666995
476.000000	19.681355
475.000000	19.743812
474.000000	19.772291
473.000000	19.805737
472.000000	19.847052
471.000000	19.908842
470.000000	19.984395
469.000000	20.010917
468.000000	20.064577
467.000000	20.143457
466.000000	20.195983
465.000000	20.226838
464.000000	20.315382
463.000000	20.347263
462.000000	20.409671
461.000000	20.448949
460.000000	20.513606
459.000000	20.556255
458.000000	20.602646
457.000000	20.636118
456.000000	20.681641
455.000000	20.711521
454.000000	20.725976
453.000000	20.785908
452.000000	20.803241
451.000000	20.848173
450.000000	20.878534
449.000000	20.922520
448.000000	20.952797
447.000000	21.011836
446.000000	21.048153
445.000000	21.103185
444.000000	21.151930
443.000000	21.164987
442.000000	21.216952
441.000000	21.259449
440.000000	21.313217
439.000000	21.340766
438.000000	21.413468
437.000000	21.486912
436.000000	21.548150
435.000000	21.608270
434.000000	21.627384
433.000000	21.741975
432.000000	21.806251
431.000000	21.852997
430.000000	21.925273
429.000000	21.975562
428.000000	22.020643
427.000000	22.094084
426.000000	22.153023
425.000000	22.215393
424.000000	22.245081
423.000000	22.325696
422.000000	22.354759
421.000000	22.402475
420.000000	22.497953
419.000000	22.547012
418.000000	22.593994
417.000000	22.660788
416.000000	22.723907
415.000000	22.769369
414.000000	22.836051
413.000000	22.890591
412.000000	22.898498
411.000000	22.935278
410.000000	22.953029
409.000000	22.953980
408.000000	22.940084
407.000000	22.888008
406.000000	22.803631
405.000000	22.682870
404.000000	22.528538
403.000000	22.328060
402.000000	22.090727
401.000000	21.827450
400.000000	21.451467
399.000000	21.069246
398.000000	20.640775
397.000000	20.148235
396.000000	19.633693
395.000000	19.045001
394.000000	18.444547
393.000000	17.824362
392.000000	17.152404
391.000000	16.483749
390.000000	15.894944
389.000000	15.272425
388.000000	14.653015
387.000000	14.111007
386.000000	13.595119
385.000000	13.108530
384.000000	12.622169
383.000000	12.197027
382.000000	11.816259
381.000000	11.445875
380.000000	11.095324
379.000000	10.760860
378.000000	10.423870
377.000000	10.125582
376.000000	9.819559
375.000000	9.568988
374.000000	9.372771
373.000000	9.181169
372.000000	9.009444
371.000000	8.781789
370.000000	8.575057
369.000000	8.424866
368.000000	8.233965
367.000000	8.097053
366.000000	7.970159
365.000000	7.833503
364.000000	7.698693
363.000000	7.554887
362.000000	7.435497
361.000000	7.301129
360.000000	7.205763
359.000000	7.097477
358.000000	7.022698
357.000000	6.931480
356.000000	6.854709
355.000000	6.753906
354.000000	6.676364
353.000000	6.600730
352.000000	6.520381
351.000000	6.456304
350.000000	6.405249
349.000000	6.348484
348.000000	6.298904
347.000000	6.262547
346.000000	6.246202
345.000000	6.230616
344.000000	6.256191
343.000000	6.184264
342.000000	6.136348
341.000000	6.106396
340.000000	6.116345
339.000000	6.144421
338.000000	6.119994
337.000000	6.121093
336.000000	6.137917
335.000000	6.146955
334.000000	6.162146
333.000000	6.186087
332.000000	6.183367
331.000000	6.206246
330.000000	6.262576
329.000000	6.324978
328.000000	6.337063
327.000000	6.319388
326.000000	6.380313
325.000000	6.388001
324.000000	6.340055
323.000000	6.391297
322.000000	6.461763
321.000000	6.501072
320.000000	6.473140
319.000000	6.423179
318.000000	6.413558
317.000000	6.424968
316.000000	6.435748
315.000000	6.479761
314.000000	6.496553
313.000000	6.535202
312.000000	6.519120
311.000000	6.534329
310.000000	6.587005
309.000000	6.560969
308.000000	6.610389
307.000000	6.595443
306.000000	6.582002
305.000000	6.585367
304.000000	6.598436
303.000000	6.612855
302.000000	6.647648
301.000000	6.639357
300.000000	6.611713
299.000000	6.602676
298.000000	6.580168
297.000000	6.571447
296.000000	6.592088
295.000000	6.569934
294.000000	6.539974
293.000000	6.579108
292.000000	6.539853
291.000000	6.568815
290.000000	6.577881
289.000000	6.550916
288.000000	6.525097
287.000000	6.512564
286.000000	6.535337
285.000000	6.528344
284.000000	6.584594
283.000000	6.598314
282.000000	6.527021
281.000000	6.556816
280.000000	6.581790
279.000000	6.592498
278.000000	6.615353
277.000000	6.614713
276.000000	6.684486
275.000000	6.643960
274.000000	6.651338
273.000000	6.681731
272.000000	6.655474
271.000000	6.693434
270.000000	6.698676
269.000000	6.710239
268.000000	6.692016
267.000000	6.746026
266.000000	6.760518
265.000000	6.714691
264.000000	6.731936
263.000000	6.752646
262.000000	6.770223
261.000000	6.777663
260.000000	6.797747
259.000000	6.824974
258.000000	6.792850
257.000000	6.801223
256.000000	6.790645
255.000000	6.850417
254.000000	6.818110
253.000000	6.831971
252.000000	6.838865
251.000000	6.852073
250.000000	6.914917
249.000000	6.886777
248.000000	6.885080
247.000000	6.887443
246.000000	6.906786
245.000000	6.931688
244.000000	6.946915
243.000000	6.973407
242.000000	6.942326
241.000000	6.958987
240.000000	6.994087
239.000000	7.021081
238.000000	7.064851
237.000000	7.069635
236.000000	7.058607
235.000000	7.100207
234.000000	7.132569
233.000000	7.119115
232.000000	7.149143
231.000000	7.179877
230.000000	7.187155
229.000000	7.216191
228.000000	7.246045
227.000000	7.262665
226.000000	7.280748
225.000000	7.321381
224.000000	7.367922
223.000000	7.384175
222.000000	7.415834
221.000000	7.417200
220.000000	7.439402
219.000000	7.475892
218.000000	7.477958
217.000000	7.541470
216.000000	7.600235
215.000000	7.633347
214.000000	7.643918
213.000000	7.674322
212.000000	7.750077
211.000000	7.698959
210.000000	7.780455
209.000000	7.856588
208.000000	7.906950
207.000000	7.964729
206.000000	8.046611
205.000000	8.051467
204.000000	8.103880
203.000000	8.133360
202.000000	8.252851
201.000000	8.343725
200.000000	8.443412
199.000000	8.586042
198.000000	8.621086
197.000000	8.705626
196.000000	8.862679
195.000000	9.112824
194.000000	9.327473
193.000000	9.448677
192.000000	9.955452
191.000000	10.786039
190.000000	13.020060
189.000000	17.794713
188.000000	27.838895
187.000000	58.171331
186.000000	91.762661
185.000000	98.431250
184.000000	99.965467
183.000000	104.474668
182.000000	101.654123
181.000000	101.666062
180.000000	104.096949
179.000000	104.015006
178.000000	102.505224
177.000000	103.952036
176.000000	105.627257
175.000000	103.805891
