PE UV       SUBTECH     SPECTRUM    ASCII       PEDS        4.00        
   -1
Sample8.Sample.Raw.ASC
25/05/30
12:39:51.00
25/06/06
09:00:45.00
tom jordan
JJC R3
175.000000
1
Lambda 1050
1050L1807051
PerkinElmer UV WinLab 6.4.0.973 / 2.02.06 Lambda 900 UV/VIS/NIR, Jan 28 2016 16:58:34

0
0
3350
0
0
UV/VIS
1
1
1
RBeamAtt,SBeamAtt,150mm sphere / downward view, WB InGaAs Detector
0
0
0
0
Program
Program
3350
3350
3350
0
1
 
 
 
0
 
860.8
319.2
860.8
Front
100
 
S:100 R:100
0
0
0
0
 
0
 
 
 
0
 
 
0
0
0
0
0
 
 
 
 
0
0


0
0
#HDR
-1
-1
#GR
nm
%T
1.0
0.0
2000.000000
-1.000000
1826
8
102.725438
6.156984
#DATA
2000.000000	10.607011
1999.000000	10.538141
1998.000000	10.288262
1997.000000	10.343607
1996.000000	10.433067
1995.000000	10.500355
1994.000000	10.583687
1993.000000	10.620721
1992.000000	10.277962
1991.000000	10.395563
1990.000000	10.318914
1989.000000	10.175553
1988.000000	10.064287
1987.000000	10.377387
1986.000000	10.300422
1985.000000	10.217038
1984.000000	10.367642
1983.000000	10.275832
1982.000000	10.155516
1981.000000	10.111836
1980.000000	10.443643
1979.000000	10.315089
1978.000000	10.468441
1977.000000	10.284448
1976.000000	10.594513
1975.000000	10.206739
1974.000000	10.423558
1973.000000	10.384414
1972.000000	10.379848
1971.000000	10.431818
1970.000000	10.258503
1969.000000	10.345155
1968.000000	10.256000
1967.000000	10.367356
1966.000000	10.456155
1965.000000	10.515429
1964.000000	10.382645
1963.000000	10.358336
1962.000000	10.459165
1961.000000	10.414802
1960.000000	10.319888
1959.000000	10.152594
1958.000000	10.436215
1957.000000	10.180708
1956.000000	10.443883
1955.000000	10.405765
1954.000000	10.278553
1953.000000	10.417008
1952.000000	10.586856
1951.000000	10.431770
1950.000000	10.268074
1949.000000	10.415761
1948.000000	10.515550
1947.000000	10.617933
1946.000000	10.187743
1945.000000	10.215297
1944.000000	10.174803
1943.000000	10.404974
1942.000000	10.446769
1941.000000	10.302960
1940.000000	10.274838
1939.000000	10.344250
1938.000000	10.338273
1937.000000	10.293451
1936.000000	10.420103
1935.000000	10.511048
1934.000000	10.115166
1933.000000	9.938137
1932.000000	10.223109
1931.000000	10.458370
1930.000000	10.717587
1929.000000	10.704441
1928.000000	10.554775
1927.000000	10.671095
1926.000000	10.364539
1925.000000	10.740389
1924.000000	10.536394
1923.000000	10.373421
1922.000000	9.982332
1921.000000	10.343869
1920.000000	10.685602
1919.000000	10.414154
1918.000000	10.204718
1917.000000	10.157340
1916.000000	10.131786
1915.000000	10.365375
1914.000000	10.931229
1913.000000	10.684766
1912.000000	10.566666
1911.000000	10.629798
1910.000000	10.899486
1909.000000	10.698995
1908.000000	10.507781
1907.000000	10.362964
1906.000000	10.243185
1905.000000	10.351326
1904.000000	10.259661
1903.000000	10.501734
1902.000000	10.561072
1901.000000	10.686636
1900.000000	10.793145
1899.000000	10.597343
1898.000000	10.522695
1897.000000	10.717216
1896.000000	10.822784
1895.000000	10.671660
1894.000000	10.371152
1893.000000	10.235404
1892.000000	10.225722
1891.000000	10.271077
1890.000000	10.445061
1889.000000	10.610186
1888.000000	10.612410
1887.000000	10.580593
1886.000000	10.768668
1885.000000	10.699759
1884.000000	10.487187
1883.000000	10.453025
1882.000000	10.628329
1881.000000	10.837747
1880.000000	10.667484
1879.000000	10.533774
1878.000000	10.603128
1877.000000	10.650402
1876.000000	10.535472
1875.000000	10.426031
1874.000000	10.448164
1873.000000	10.674929
1872.000000	10.695867
1871.000000	10.592806
1870.000000	10.597026
1869.000000	10.636727
1868.000000	10.453916
1867.000000	10.274484
1866.000000	10.524634
1865.000000	10.567202
1864.000000	10.610162
1863.000000	10.464031
1862.000000	10.519183
1861.000000	10.628305
1860.000000	10.506087
1859.000000	10.416552
1858.000000	10.547900
1857.000000	10.499678
1856.000000	10.450980
1855.000000	10.532974
1854.000000	10.373134
1853.000000	10.436455
1852.000000	10.421782
1851.000000	10.443282
1850.000000	10.417704
1849.000000	10.386208
1848.000000	10.500936
1847.000000	10.508458
1846.000000	10.420751
1845.000000	10.293001
1844.000000	10.444099
1843.000000	10.446120
1842.000000	10.424710
1841.000000	10.496729
1840.000000	10.675888
1839.000000	10.518456
1838.000000	10.306258
1837.000000	10.421350
1836.000000	10.503064
1835.000000	10.450234
1834.000000	10.526500
1833.000000	10.559589
1832.000000	10.379227
1831.000000	10.354521
1830.000000	10.362034
1829.000000	10.359982
1828.000000	10.284804
1827.000000	10.405621
1826.000000	10.306424
1825.000000	10.344155
1824.000000	10.347085
1823.000000	10.431914
1822.000000	10.436022
1821.000000	10.412212
1820.000000	10.399010
1819.000000	10.457672
1818.000000	10.505942
1817.000000	10.401716
1816.000000	10.361795
1815.000000	10.274436
1814.000000	10.338321
1813.000000	10.268192
1812.000000	10.470442
1811.000000	10.527615
1810.000000	10.518287
1809.000000	10.480428
1808.000000	10.544160
1807.000000	10.482769
1806.000000	10.444316
1805.000000	10.449849
1804.000000	10.439002
1803.000000	10.444436
1802.000000	10.351016
1801.000000	10.471117
1800.000000	10.290749
1799.000000	10.391064
1798.000000	10.338225
1797.000000	10.499292
1796.000000	10.429969
1795.000000	10.510152
1794.000000	10.535739
1793.000000	10.486124
1792.000000	10.374520
1791.000000	10.565888
1790.000000	10.523010
1789.000000	10.552297
1788.000000	10.563990
1787.000000	10.374854
1786.000000	10.540204
1785.000000	10.519740
1784.000000	10.509958
1783.000000	10.513541
1782.000000	10.523277
1781.000000	10.510442
1780.000000	10.503789
1779.000000	10.378175
1778.000000	10.466970
1777.000000	10.629773
1776.000000	10.589026
1775.000000	10.674978
1774.000000	10.486607
1773.000000	10.640573
1772.000000	10.594708
1771.000000	10.692124
1770.000000	10.361437
1769.000000	10.443089
1768.000000	10.545544
1767.000000	10.671611
1766.000000	10.569562
1765.000000	10.352923
1764.000000	10.523495
1763.000000	10.643146
1762.000000	10.567445
1761.000000	10.439916
1760.000000	10.561242
1759.000000	10.702248
1758.000000	10.642459
1757.000000	10.609893
1756.000000	10.569587
1755.000000	10.501443
1754.000000	10.682133
1753.000000	10.453507
1752.000000	10.734801
1751.000000	10.649151
1750.000000	10.568005
1749.000000	10.739152
1748.000000	10.623387
1747.000000	10.694414
1746.000000	10.692518
1745.000000	10.732132
1744.000000	10.587295
1743.000000	10.658743
1742.000000	10.569002
1741.000000	10.580374
1740.000000	10.515381
1739.000000	10.483348
1738.000000	10.792101
1737.000000	10.671685
1736.000000	10.705279
1735.000000	10.618422
1734.000000	10.580471
1733.000000	10.450113
1732.000000	10.649617
1731.000000	10.678912
1730.000000	10.807817
1729.000000	10.630042
1728.000000	10.687669
1727.000000	10.704860
1726.000000	10.820890
1725.000000	10.714946
1724.000000	10.668614
1723.000000	10.707843
1722.000000	10.602713
1721.000000	10.723363
1720.000000	10.560342
1719.000000	10.650157
1718.000000	10.626739
1717.000000	10.716599
1716.000000	10.661861
1715.000000	10.821364
1714.000000	10.807593
1713.000000	10.696384
1712.000000	10.731168
1711.000000	10.691780
1710.000000	10.713219
1709.000000	10.666280
1708.000000	10.671611
1707.000000	10.686020
1706.000000	10.795506
1705.000000	10.748206
1704.000000	10.694562
1703.000000	10.663948
1702.000000	10.690524
1701.000000	10.701459
1700.000000	10.713195
1699.000000	10.747885
1698.000000	10.875144
1697.000000	10.872339
1696.000000	10.779361
1695.000000	10.837547
1694.000000	10.767677
1693.000000	10.702420
1692.000000	10.683117
1691.000000	10.814240
1690.000000	10.662695
1689.000000	10.659185
1688.000000	10.770999
1687.000000	10.800230
1686.000000	10.823980
1685.000000	10.822959
1684.000000	10.717364
1683.000000	10.693380
1682.000000	10.800404
1681.000000	10.805279
1680.000000	10.771223
1679.000000	10.781495
1678.000000	10.827246
1677.000000	10.763909
1676.000000	10.762669
1675.000000	10.773579
1674.000000	10.758581
1673.000000	10.795382
1672.000000	10.817179
1671.000000	10.772066
1670.000000	10.721165
1669.000000	10.748751
1668.000000	10.771545
1667.000000	10.789741
1666.000000	10.767602
1665.000000	10.786735
1664.000000	10.781322
1663.000000	10.779261
1662.000000	10.834229
1661.000000	10.926498
1660.000000	10.844137
1659.000000	10.859429
1658.000000	10.868835
1657.000000	10.839219
1656.000000	10.906741
1655.000000	10.904556
1654.000000	10.850481
1653.000000	10.885340
1652.000000	10.888323
1651.000000	10.854254
1650.000000	10.874643
1649.000000	10.862480
1648.000000	10.811601
1647.000000	10.788225
1646.000000	10.823233
1645.000000	10.801896
1644.000000	10.784698
1643.000000	10.866208
1642.000000	10.892210
1641.000000	10.903351
1640.000000	10.926322
1639.000000	10.890956
1638.000000	10.876922
1637.000000	10.915308
1636.000000	10.906867
1635.000000	10.937121
1634.000000	10.904155
1633.000000	10.888599
1632.000000	10.914805
1631.000000	10.901368
1630.000000	10.894191
1629.000000	10.920361
1628.000000	10.916665
1627.000000	10.896198
1626.000000	10.895320
1625.000000	10.913800
1624.000000	10.923153
1623.000000	10.913825
1622.000000	10.982975
1621.000000	10.996766
1620.000000	10.933797
1619.000000	10.886443
1618.000000	10.892937
1617.000000	10.976301
1616.000000	10.943821
1615.000000	10.925668
1614.000000	10.935308
1613.000000	10.929543
1612.000000	10.984467
1611.000000	10.970489
1610.000000	10.928637
1609.000000	10.986390
1608.000000	10.970868
1607.000000	11.002237
1606.000000	10.984518
1605.000000	10.962232
1604.000000	11.022345
1603.000000	11.052538
1602.000000	10.999425
1601.000000	10.975088
1600.000000	11.026813
1599.000000	11.023335
1598.000000	11.034077
1597.000000	11.001325
1596.000000	11.030800
1595.000000	10.979814
1594.000000	11.004720
1593.000000	11.032248
1592.000000	10.982646
1591.000000	11.026305
1590.000000	10.999273
1589.000000	11.062722
1588.000000	11.039998
1587.000000	11.056076
1586.000000	11.036592
1585.000000	11.095299
1584.000000	11.100231
1583.000000	11.101483
1582.000000	11.151749
1581.000000	11.084242
1580.000000	11.083578
1579.000000	11.067945
1578.000000	11.041651
1577.000000	11.109359
1576.000000	11.111047
1575.000000	11.075466
1574.000000	11.012730
1573.000000	11.064123
1572.000000	11.097087
1571.000000	11.132097
1570.000000	11.050909
1569.000000	11.116345
1568.000000	11.250349
1567.000000	11.277608
1566.000000	11.118188
1565.000000	11.113913
1564.000000	11.071131
1563.000000	11.144716
1562.000000	11.163824
1561.000000	11.132277
1560.000000	11.196596
1559.000000	11.152648
1558.000000	11.126152
1557.000000	11.168864
1556.000000	11.240950
1555.000000	11.157528
1554.000000	11.223595
1553.000000	11.152212
1552.000000	11.174343
1551.000000	11.073375
1550.000000	11.160946
1549.000000	11.248147
1548.000000	11.218815
1547.000000	11.218325
1546.000000	11.179207
1545.000000	11.298271
1544.000000	11.239811
1543.000000	11.245532
1542.000000	11.165470
1541.000000	11.095478
1540.000000	11.270495
1539.000000	11.150722
1538.000000	11.229980
1537.000000	11.260820
1536.000000	11.300223
1535.000000	11.275349
1534.000000	11.245221
1533.000000	11.204952
1532.000000	11.182142
1531.000000	11.332559
1530.000000	11.258175
1529.000000	11.342218
1528.000000	11.283868
1527.000000	11.226206
1526.000000	11.255635
1525.000000	11.390270
1524.000000	11.414871
1523.000000	11.253354
1522.000000	11.327550
1521.000000	11.297439
1520.000000	11.354107
1519.000000	11.365564
1518.000000	11.325881
1517.000000	11.279868
1516.000000	11.312094
1515.000000	11.345405
1514.000000	11.344308
1513.000000	11.443345
1512.000000	11.312511
1511.000000	11.319832
1510.000000	11.301576
1509.000000	11.329715
1508.000000	11.341774
1507.000000	11.331411
1506.000000	11.428915
1505.000000	11.433521
1504.000000	11.411770
1503.000000	11.439868
1502.000000	11.494392
1501.000000	11.382457
1500.000000	11.391528
1499.000000	11.417683
1498.000000	11.405019
1497.000000	11.477968
1496.000000	11.391843
1495.000000	11.410719
1494.000000	11.429573
1493.000000	11.482726
1492.000000	11.458453
1491.000000	11.371794
1490.000000	11.387516
1489.000000	11.400450
1488.000000	11.469012
1487.000000	11.466054
1486.000000	11.404362
1485.000000	11.441317
1484.000000	11.498336
1483.000000	11.529965
1482.000000	11.442528
1481.000000	11.472815
1480.000000	11.466002
1479.000000	11.503394
1478.000000	11.483175
1477.000000	11.461725
1476.000000	11.483625
1475.000000	11.591616
1474.000000	11.580705
1473.000000	11.460564
1472.000000	11.452729
1471.000000	11.482409
1470.000000	11.599039
1469.000000	11.625617
1468.000000	11.550798
1467.000000	11.521924
1466.000000	11.589668
1465.000000	11.679439
1464.000000	11.616358
1463.000000	11.559871
1462.000000	11.497410
1461.000000	11.548086
1460.000000	11.617027
1459.000000	11.601095
1458.000000	11.634186
1457.000000	11.602965
1456.000000	11.606172
1455.000000	11.635499
1454.000000	11.680085
1453.000000	11.640617
1452.000000	11.599012
1451.000000	11.584225
1450.000000	11.578465
1449.000000	11.608230
1448.000000	11.610582
1447.000000	11.674035
1446.000000	11.699222
1445.000000	11.665222
1444.000000	11.666323
1443.000000	11.658052
1442.000000	11.623529
1441.000000	11.667774
1440.000000	11.738754
1439.000000	11.726705
1438.000000	11.680354
1437.000000	11.668338
1436.000000	11.673014
1435.000000	11.718391
1434.000000	11.720307
1433.000000	11.748002
1432.000000	11.724167
1431.000000	11.715289
1430.000000	11.745270
1429.000000	11.750274
1428.000000	11.764623
1427.000000	11.783437
1426.000000	11.745621
1425.000000	11.724599
1424.000000	11.780996
1423.000000	11.817755
1422.000000	11.791824
1421.000000	11.745784
1420.000000	11.785120
1419.000000	11.809350
1418.000000	11.795490
1417.000000	11.823607
1416.000000	11.805816
1415.000000	11.819742
1414.000000	11.818626
1413.000000	11.841535
1412.000000	11.849745
1411.000000	11.853729
1410.000000	11.851573
1409.000000	11.821675
1408.000000	11.847262
1407.000000	11.877225
1406.000000	11.859817
1405.000000	11.790657
1404.000000	11.830279
1403.000000	11.879113
1402.000000	11.828155
1401.000000	11.857578
1400.000000	11.827937
1399.000000	11.833521
1398.000000	11.854193
1397.000000	11.847726
1396.000000	11.823825
1395.000000	11.846471
1394.000000	11.923507
1393.000000	11.937737
1392.000000	11.939001
1391.000000	11.946619
1390.000000	11.960188
1389.000000	11.936995
1388.000000	11.925291
1387.000000	11.936637
1386.000000	11.914423
1385.000000	11.934796
1384.000000	11.936280
1383.000000	11.925758
1382.000000	11.887978
1381.000000	11.923836
1380.000000	11.967956
1379.000000	11.957875
1378.000000	11.988228
1377.000000	11.975951
1376.000000	11.979343
1375.000000	11.952672
1374.000000	11.979757
1373.000000	12.023752
1372.000000	12.013927
1371.000000	11.985413
1370.000000	12.007898
1369.000000	12.027684
1368.000000	12.047335
1367.000000	12.045810
1366.000000	12.039127
1365.000000	12.057798
1364.000000	12.049583
1363.000000	12.064519
1362.000000	12.068075
1361.000000	12.025524
1360.000000	12.104755
1359.000000	12.127576
1358.000000	12.158612
1357.000000	12.130341
1356.000000	12.068436
1355.000000	12.106901
1354.000000	12.133889
1353.000000	12.140652
1352.000000	12.165669
1351.000000	12.161188
1350.000000	12.180328
1349.000000	12.113705
1348.000000	12.116606
1347.000000	12.040624
1346.000000	12.081059
1345.000000	12.089964
1344.000000	12.113036
1343.000000	12.112841
1342.000000	12.134755
1341.000000	12.145573
1340.000000	12.168219
1339.000000	12.212090
1338.000000	12.181338
1337.000000	12.149601
1336.000000	12.150636
1335.000000	12.153882
1334.000000	12.152930
1333.000000	12.145601
1332.000000	12.146244
1331.000000	12.179571
1330.000000	12.214002
1329.000000	12.234043
1328.000000	12.191131
1327.000000	12.178141
1326.000000	12.214030
1325.000000	12.220867
1324.000000	12.230607
1323.000000	12.197561
1322.000000	12.253298
1321.000000	12.275127
1320.000000	12.272640
1319.000000	12.287061
1318.000000	12.275297
1317.000000	12.224413
1316.000000	12.298298
1315.000000	12.276710
1314.000000	12.336359
1313.000000	12.330992
1312.000000	12.291503
1311.000000	12.306059
1310.000000	12.282620
1309.000000	12.294928
1308.000000	12.299317
1307.000000	12.293343
1306.000000	12.287994
1305.000000	12.331900
1304.000000	12.346987
1303.000000	12.367787
1302.000000	12.389050
1301.000000	12.384087
1300.000000	12.353869
1299.000000	12.373228
1298.000000	12.375194
1297.000000	12.376761
1296.000000	12.441192
1295.000000	12.393130
1294.000000	12.353727
1293.000000	12.414579
1292.000000	12.403550
1291.000000	12.453775
1290.000000	12.453574
1289.000000	12.476823
1288.000000	12.445347
1287.000000	12.412464
1286.000000	12.426019
1285.000000	12.445805
1284.000000	12.489844
1283.000000	12.470705
1282.000000	12.481880
1281.000000	12.519414
1280.000000	12.490706
1279.000000	12.503310
1278.000000	12.485990
1277.000000	12.557321
1276.000000	12.562845
1275.000000	12.529883
1274.000000	12.562700
1273.000000	12.550384
1272.000000	12.533778
1271.000000	12.565015
1270.000000	12.574334
1269.000000	12.585776
1268.000000	12.612640
1267.000000	12.602799
1266.000000	12.568574
1265.000000	12.593313
1264.000000	12.606369
1263.000000	12.623012
1262.000000	12.583777
1261.000000	12.629612
1260.000000	12.640580
1259.000000	12.595894
1258.000000	12.612466
1257.000000	12.622315
1256.000000	12.656948
1255.000000	12.667678
1254.000000	12.708901
1253.000000	12.687031
1252.000000	12.677365
1251.000000	12.727057
1250.000000	12.714697
1249.000000	12.726530
1248.000000	12.702114
1247.000000	12.778768
1246.000000	12.749907
1245.000000	12.773179
1244.000000	12.770150
1243.000000	12.723893
1242.000000	12.775179
1241.000000	12.778445
1240.000000	12.785449
1239.000000	12.777327
1238.000000	12.740310
1237.000000	12.737582
1236.000000	12.763506
1235.000000	12.782565
1234.000000	12.789925
1233.000000	12.788718
1232.000000	12.786539
1231.000000	12.794284
1230.000000	12.805838
1229.000000	12.866221
1228.000000	12.875645
1227.000000	12.861511
1226.000000	12.869450
1225.000000	12.870162
1224.000000	12.876297
1223.000000	12.852689
1222.000000	12.821416
1221.000000	12.852245
1220.000000	12.910855
1219.000000	12.913025
1218.000000	12.915523
1217.000000	12.911985
1216.000000	12.965223
1215.000000	12.953287
1214.000000	12.949828
1213.000000	12.978485
1212.000000	12.963701
1211.000000	12.965701
1210.000000	12.982669
1209.000000	13.008404
1208.000000	12.976513
1207.000000	12.974093
1206.000000	12.962477
1205.000000	12.977768
1204.000000	12.980727
1203.000000	12.989308
1202.000000	13.013616
1201.000000	12.978933
1200.000000	13.054793
1199.000000	13.079466
1198.000000	13.086846
1197.000000	13.042144
1196.000000	13.046049
1195.000000	13.075190
1194.000000	13.082598
1193.000000	13.127136
1192.000000	13.089589
1191.000000	13.058521
1190.000000	13.062551
1189.000000	13.113844
1188.000000	13.123782
1187.000000	13.130885
1186.000000	13.148312
1185.000000	13.169491
1184.000000	13.177590
1183.000000	13.204106
1182.000000	13.188366
1181.000000	13.172888
1180.000000	13.188123
1179.000000	13.175922
1178.000000	13.160337
1177.000000	13.170856
1176.000000	13.232351
1175.000000	13.222087
1174.000000	13.213048
1173.000000	13.215147
1172.000000	13.215634
1171.000000	13.217612
1170.000000	13.229822
1169.000000	13.247868
1168.000000	13.278744
1167.000000	13.290674
1166.000000	13.249272
1165.000000	13.265023
1164.000000	13.287369
1163.000000	13.294377
1162.000000	13.279447
1161.000000	13.268597
1160.000000	13.287186
1159.000000	13.281618
1158.000000	13.325055
1157.000000	13.356233
1156.000000	13.336627
1155.000000	13.355526
1154.000000	13.363863
1153.000000	13.399729
1152.000000	13.399297
1151.000000	13.382770
1150.000000	13.418501
1149.000000	13.396428
1148.000000	13.409482
1147.000000	13.405685
1146.000000	13.410347
1145.000000	13.423724
1144.000000	13.430556
1143.000000	13.449867
1142.000000	13.448474
1141.000000	13.482952
1140.000000	13.467718
1139.000000	13.450642
1138.000000	13.475069
1137.000000	13.493512
1136.000000	13.503085
1135.000000	13.478358
1134.000000	13.495998
1133.000000	13.520134
1132.000000	13.497458
1131.000000	13.525365
1130.000000	13.533403
1129.000000	13.526767
1128.000000	13.518142
1127.000000	13.532624
1126.000000	13.553954
1125.000000	13.569130
1124.000000	13.563445
1123.000000	13.575755
1122.000000	13.585981
1121.000000	13.590424
1120.000000	13.621063
1119.000000	13.624357
1118.000000	13.615513
1117.000000	13.633520
1116.000000	13.613600
1115.000000	13.664854
1114.000000	13.679650
1113.000000	13.737573
1112.000000	13.707082
1111.000000	13.700108
1110.000000	13.672597
1109.000000	13.664193
1108.000000	13.680690
1107.000000	13.715259
1106.000000	13.714564
1105.000000	13.696386
1104.000000	13.714153
1103.000000	13.701717
1102.000000	13.759574
1101.000000	13.777836
1100.000000	13.726822
1099.000000	13.742287
1098.000000	13.794374
1097.000000	13.786848
1096.000000	13.806576
1095.000000	13.863376
1094.000000	13.798663
1093.000000	13.864812
1092.000000	13.826460
1091.000000	13.870592
1090.000000	13.846372
1089.000000	13.861748
1088.000000	13.859386
1087.000000	13.880752
1086.000000	13.907978
1085.000000	13.868708
1084.000000	13.896870
1083.000000	13.938595
1082.000000	13.953656
1081.000000	13.966513
1080.000000	13.946525
1079.000000	13.903560
1078.000000	13.980220
1077.000000	13.977420
1076.000000	13.979544
1075.000000	13.995648
1074.000000	13.956708
1073.000000	14.005029
1072.000000	14.025650
1071.000000	14.025715
1070.000000	13.974137
1069.000000	14.005577
1068.000000	14.015287
1067.000000	14.000740
1066.000000	13.989429
1065.000000	14.004964
1064.000000	14.008157
1063.000000	14.033629
1062.000000	14.025359
1061.000000	14.069057
1060.000000	14.100970
1059.000000	14.066174
1058.000000	14.123001
1057.000000	14.117702
1056.000000	14.170690
1055.000000	14.137968
1054.000000	14.110649
1053.000000	14.113769
1052.000000	14.113834
1051.000000	14.224860
1050.000000	14.202245
1049.000000	14.189138
1048.000000	14.174769
1047.000000	14.108895
1046.000000	14.173268
1045.000000	14.180025
1044.000000	14.178164
1043.000000	14.263135
1042.000000	14.268030
1041.000000	14.305597
1040.000000	14.303951
1039.000000	14.265467
1038.000000	14.280848
1037.000000	14.260016
1036.000000	14.345874
1035.000000	14.234067
1034.000000	14.334416
1033.000000	14.267701
1032.000000	14.211437
1031.000000	14.389444
1030.000000	14.323033
1029.000000	14.322341
1028.000000	14.380666
1027.000000	14.414182
1026.000000	14.302765
1025.000000	14.318648
1024.000000	14.357208
1023.000000	14.349177
1022.000000	14.405456
1021.000000	14.414514
1020.000000	14.496862
1019.000000	14.468217
1018.000000	14.456062
1017.000000	14.389344
1016.000000	14.493057
1015.000000	14.424707
1014.000000	14.500801
1013.000000	14.415178
1012.000000	14.466618
1011.000000	14.612987
1010.000000	14.517372
1009.000000	14.500501
1008.000000	14.572364
1007.000000	14.685915
1006.000000	14.657166
1005.000000	14.650957
1004.000000	14.560222
1003.000000	14.541660
1002.000000	14.687538
1001.000000	14.624364
1000.000000	14.622445
999.000000	14.588344
998.000000	14.578606
997.000000	14.556836
996.000000	14.601417
995.000000	14.625375
994.000000	14.580755
993.000000	14.669591
992.000000	14.634740
991.000000	14.671922
990.000000	14.689838
989.000000	14.778556
988.000000	14.724413
987.000000	14.799396
986.000000	14.686185
985.000000	14.689635
984.000000	14.664154
983.000000	14.700226
982.000000	14.723701
981.000000	14.741205
980.000000	14.761959
979.000000	14.845711
978.000000	14.784104
977.000000	14.740289
976.000000	14.864935
975.000000	14.811840
974.000000	14.805975
973.000000	14.905893
972.000000	14.793366
971.000000	14.843728
970.000000	14.872056
969.000000	14.927566
968.000000	14.945312
967.000000	14.990323
966.000000	14.855627
965.000000	14.860657
964.000000	14.938053
963.000000	14.872912
962.000000	14.916605
961.000000	14.974902
960.000000	15.082940
959.000000	15.067771
958.000000	15.025018
957.000000	14.984388
956.000000	14.995295
955.000000	15.030831
954.000000	15.077002
953.000000	15.067424
952.000000	14.948651
951.000000	15.035574
950.000000	15.076794
949.000000	15.110645
948.000000	15.125683
947.000000	15.013605
946.000000	15.051230
945.000000	15.106401
944.000000	15.183469
943.000000	15.316869
942.000000	15.306327
941.000000	15.196760
940.000000	15.234247
939.000000	15.100941
938.000000	15.204530
937.000000	15.297413
936.000000	15.228355
935.000000	15.114299
934.000000	15.122897
933.000000	15.304037
932.000000	15.436257
931.000000	15.342319
930.000000	15.210728
929.000000	15.412639
928.000000	15.612592
927.000000	15.566537
926.000000	15.393203
925.000000	15.322090
924.000000	15.378997
923.000000	15.434693
922.000000	15.295370
921.000000	15.243195
920.000000	15.299844
919.000000	15.129236
918.000000	15.236773
917.000000	15.481570
916.000000	15.456032
915.000000	15.235440
914.000000	15.239299
913.000000	15.318456
912.000000	15.185671
911.000000	15.368837
910.000000	15.709234
909.000000	15.566537
908.000000	15.425775
907.000000	15.509114
906.000000	15.696181
905.000000	15.816049
904.000000	15.584325
903.000000	15.584110
902.000000	15.581239
901.000000	15.724650
900.000000	15.593442
899.000000	15.271335
898.000000	15.222676
897.000000	15.521475
896.000000	15.800397
895.000000	16.060794
894.000000	15.967135
893.000000	15.489022
892.000000	15.710210
891.000000	15.885980
890.000000	15.991787
889.000000	15.945054
888.000000	15.915526
887.000000	15.742040
886.000000	16.042572
885.000000	16.386983
884.000000	16.091703
883.000000	16.264136
882.000000	15.839556
881.000000	16.090221
880.000000	16.077592
879.000000	16.284221
878.000000	16.146076
877.000000	15.702435
876.000000	15.949681
875.000000	15.921354
874.000000	16.239924
873.000000	16.263949
872.000000	15.680034
871.000000	15.487061
870.000000	15.709415
869.000000	16.290635
868.000000	16.569446
867.000000	16.279273
866.000000	15.755783
865.000000	15.500974
864.000000	15.516794
863.000000	16.227365
862.000000	15.823006
861.000000	15.336773
860.000000	14.805463
859.000000	14.760158
858.000000	14.759954
857.000000	14.417169
856.000000	14.559216
855.000000	14.878152
854.000000	14.801305
853.000000	14.713229
852.000000	14.775800
851.000000	14.686016
850.000000	14.918357
849.000000	14.965010
848.000000	15.049601
847.000000	15.066834
846.000000	14.981697
845.000000	15.092737
844.000000	15.162541
843.000000	15.056430
842.000000	15.057608
841.000000	15.109566
840.000000	15.073635
839.000000	15.221379
838.000000	15.205545
837.000000	15.307279
836.000000	15.365971
835.000000	15.367988
834.000000	15.303226
833.000000	15.312355
832.000000	15.260614
831.000000	15.358861
830.000000	15.359851
829.000000	15.448702
828.000000	15.385691
827.000000	15.405081
826.000000	15.490663
825.000000	15.405720
824.000000	15.507972
823.000000	15.443616
822.000000	15.439172
821.000000	15.514222
820.000000	15.487061
819.000000	15.508757
818.000000	15.564816
817.000000	15.633708
816.000000	15.555071
815.000000	15.511043
814.000000	15.643899
813.000000	15.644799
812.000000	15.571878
811.000000	15.622445
810.000000	15.668846
809.000000	15.685487
808.000000	15.657701
807.000000	15.769321
806.000000	15.673897
805.000000	15.671263
804.000000	15.775786
803.000000	15.685812
802.000000	15.748638
801.000000	15.781599
800.000000	15.793086
799.000000	15.821658
798.000000	15.829274
797.000000	15.849552
796.000000	15.913511
795.000000	15.875521
794.000000	15.920071
793.000000	15.947514
792.000000	15.928101
791.000000	15.974380
790.000000	15.997385
789.000000	15.860979
788.000000	15.962724
787.000000	15.957983
786.000000	16.011720
785.000000	16.008255
784.000000	16.006228
783.000000	16.066638
782.000000	16.028172
781.000000	16.108904
780.000000	16.070375
779.000000	16.093926
778.000000	16.134592
777.000000	16.169478
776.000000	16.143325
775.000000	16.124453
774.000000	16.226879
773.000000	16.236335
772.000000	16.246694
771.000000	16.251745
770.000000	16.207088
769.000000	16.262713
768.000000	16.305871
767.000000	16.349106
766.000000	16.340374
765.000000	16.329391
764.000000	16.312368
763.000000	16.352833
762.000000	16.346922
761.000000	16.374385
760.000000	16.405747
759.000000	16.406615
758.000000	16.399628
757.000000	16.454701
756.000000	16.457240
755.000000	16.499660
754.000000	16.522890
753.000000	16.498179
752.000000	16.487621
751.000000	16.492064
750.000000	16.576659
749.000000	16.555069
748.000000	16.591169
747.000000	16.643206
746.000000	16.669555
745.000000	16.734009
744.000000	16.665372
743.000000	16.700366
742.000000	16.718296
741.000000	16.705212
740.000000	16.718527
739.000000	16.754057
738.000000	16.783634
737.000000	16.790785
736.000000	16.837244
735.000000	16.838446
734.000000	16.812218
733.000000	16.859706
732.000000	16.865220
731.000000	16.875552
730.000000	16.947358
729.000000	16.930703
728.000000	16.938424
727.000000	16.959264
726.000000	16.977823
725.000000	17.038604
724.000000	17.050260
723.000000	17.022957
722.000000	17.076034
721.000000	17.070687
720.000000	17.073203
719.000000	17.084253
718.000000	17.094524
717.000000	17.114452
716.000000	17.142810
715.000000	17.196339
714.000000	17.191469
713.000000	17.223960
712.000000	17.234036
711.000000	17.262035
710.000000	17.272532
709.000000	17.281363
708.000000	17.316416
707.000000	17.379129
706.000000	17.367208
705.000000	17.383131
704.000000	17.396945
703.000000	17.425129
702.000000	17.437331
701.000000	17.465057
700.000000	17.461920
699.000000	17.479339
698.000000	17.503867
697.000000	17.559858
696.000000	17.567946
695.000000	17.582434
694.000000	17.625441
693.000000	17.645786
692.000000	17.657939
691.000000	17.681984
690.000000	17.691310
689.000000	17.692451
688.000000	17.730133
687.000000	17.743611
686.000000	17.764950
685.000000	17.787708
684.000000	17.828056
683.000000	17.842882
682.000000	17.840129
681.000000	17.865698
680.000000	17.885126
679.000000	17.895053
678.000000	17.922599
677.000000	17.959242
676.000000	17.960110
675.000000	17.987177
674.000000	18.032253
673.000000	18.050573
672.000000	18.062672
671.000000	18.066125
670.000000	18.087019
669.000000	18.131302
668.000000	18.172011
667.000000	18.190180
666.000000	18.192484
665.000000	18.212560
664.000000	18.245972
663.000000	18.252695
662.000000	18.271071
661.000000	18.300123
660.000000	18.302609
659.000000	18.331922
658.000000	18.384719
657.000000	18.414418
656.000000	18.406618
655.000000	18.416199
654.000000	18.444887
653.000000	18.498393
652.000000	18.524180
651.000000	18.520982
650.000000	18.534207
649.000000	18.541463
648.000000	18.564788
647.000000	18.598546
646.000000	18.614913
645.000000	18.646057
644.000000	18.682629
643.000000	18.702299
642.000000	18.727681
641.000000	18.745671
640.000000	18.784862
639.000000	18.801478
638.000000	18.787803
637.000000	18.818717
636.000000	18.871308
635.000000	18.892568
634.000000	18.911327
633.000000	18.947155
632.000000	18.959767
631.000000	18.981215
630.000000	19.017044
629.000000	19.054783
628.000000	19.061848
627.000000	19.073702
626.000000	19.096598
625.000000	19.138196
624.000000	19.162316
623.000000	19.182049
622.000000	19.214540
621.000000	19.219319
620.000000	19.241415
619.000000	19.294565
618.000000	19.307365
617.000000	19.327559
616.000000	19.354368
615.000000	19.384919
614.000000	19.386526
613.000000	19.422449
612.000000	19.468119
611.000000	19.475876
610.000000	19.490456
609.000000	19.508191
608.000000	19.530079
607.000000	19.552262
606.000000	19.560232
605.000000	19.573162
604.000000	19.623253
603.000000	19.642104
602.000000	19.660294
601.000000	19.646265
600.000000	19.664595
599.000000	19.676597
598.000000	19.676008
597.000000	19.675737
596.000000	19.666949
595.000000	19.668761
594.000000	19.649115
593.000000	19.652690
592.000000	19.630077
591.000000	19.591334
590.000000	19.553387
589.000000	19.525583
588.000000	19.497503
587.000000	19.435781
586.000000	19.382956
585.000000	19.318571
584.000000	19.260830
583.000000	19.196984
582.000000	19.137932
581.000000	19.085037
580.000000	19.074537
579.000000	19.013847
578.000000	18.992625
577.000000	18.962561
576.000000	18.913504
575.000000	18.930627
574.000000	18.917816
573.000000	18.914027
572.000000	18.920996
571.000000	18.915769
570.000000	18.922303
569.000000	18.946369
568.000000	18.970903
567.000000	18.993150
566.000000	19.022430
565.000000	19.043554
564.000000	19.069487
563.000000	19.092773
562.000000	19.100863
561.000000	19.111334
560.000000	19.146130
559.000000	19.174895
558.000000	19.196011
557.000000	19.254977
556.000000	19.273208
555.000000	19.318304
554.000000	19.370285
553.000000	19.395724
552.000000	19.436273
551.000000	19.473096
550.000000	19.482694
549.000000	19.527831
548.000000	19.577219
547.000000	19.610334
546.000000	19.639028
545.000000	19.652961
544.000000	19.711606
543.000000	19.765964
542.000000	19.797666
541.000000	19.811757
540.000000	19.855736
539.000000	19.889506
538.000000	19.929344
537.000000	19.963423
536.000000	19.973078
535.000000	19.986512
534.000000	20.014051
533.000000	20.052707
532.000000	20.094398
531.000000	20.126395
530.000000	20.135202
529.000000	20.180178
528.000000	20.206589
527.000000	20.219667
526.000000	20.266372
525.000000	20.295231
524.000000	20.309489
523.000000	20.367325
522.000000	20.383136
521.000000	20.425938
520.000000	20.477550
519.000000	20.517243
518.000000	20.552516
517.000000	20.601602
516.000000	20.649427
515.000000	20.691930
514.000000	20.737958
513.000000	20.782510
512.000000	20.822266
511.000000	20.893635
510.000000	20.925459
509.000000	20.948648
508.000000	20.982585
507.000000	21.063959
506.000000	21.057364
505.000000	21.095217
504.000000	21.095411
503.000000	21.059206
502.000000	21.041176
501.000000	21.012562
500.000000	20.973504
499.000000	20.927869
498.000000	20.836607
497.000000	20.738293
496.000000	20.675975
495.000000	20.623957
494.000000	20.494296
493.000000	20.392807
492.000000	20.293268
491.000000	20.171445
490.000000	20.102080
489.000000	20.019075
488.000000	19.919251
487.000000	19.858343
486.000000	19.804095
485.000000	19.776845
484.000000	19.723819
483.000000	19.683395
482.000000	19.674831
481.000000	19.675782
480.000000	19.666225
479.000000	19.680766
478.000000	19.708837
477.000000	19.735585
476.000000	19.748313
475.000000	19.801131
474.000000	19.862733
473.000000	19.879479
472.000000	19.921636
471.000000	19.964802
470.000000	20.033738
469.000000	20.091900
468.000000	20.143921
467.000000	20.204216
466.000000	20.263758
465.000000	20.303738
464.000000	20.383183
463.000000	20.430453
462.000000	20.480332
461.000000	20.544425
460.000000	20.580077
459.000000	20.607960
458.000000	20.659462
457.000000	20.701461
456.000000	20.738675
455.000000	20.795961
454.000000	20.830515
453.000000	20.857296
452.000000	20.884736
451.000000	20.940112
450.000000	20.976016
449.000000	21.027953
448.000000	21.011594
447.000000	21.070944
446.000000	21.115288
445.000000	21.187270
444.000000	21.216806
443.000000	21.239046
442.000000	21.322494
441.000000	21.357135
440.000000	21.364808
439.000000	21.419385
438.000000	21.510574
437.000000	21.544330
436.000000	21.606429
435.000000	21.668657
434.000000	21.686976
433.000000	21.753443
432.000000	21.847865
431.000000	21.913513
430.000000	21.977435
429.000000	22.049716
428.000000	22.097086
427.000000	22.162054
426.000000	22.225268
425.000000	22.268040
424.000000	22.303242
423.000000	22.384634
422.000000	22.441196
421.000000	22.495207
420.000000	22.537981
419.000000	22.579691
418.000000	22.672322
417.000000	22.742804
416.000000	22.795441
415.000000	22.865463
414.000000	22.921762
413.000000	22.948325
412.000000	22.978835
411.000000	23.027458
410.000000	23.028412
409.000000	23.026451
408.000000	22.994660
407.000000	22.954403
406.000000	22.877576
405.000000	22.743327
404.000000	22.596855
403.000000	22.376286
402.000000	22.101106
401.000000	21.841024
400.000000	21.484587
399.000000	21.084874
398.000000	20.684070
397.000000	20.230611
396.000000	19.698493
395.000000	19.101083
394.000000	18.471068
393.000000	17.859735
392.000000	17.229037
391.000000	16.576048
390.000000	15.923554
389.000000	15.315882
388.000000	14.722176
387.000000	14.128889
386.000000	13.605860
385.000000	13.121334
384.000000	12.663216
383.000000	12.224103
382.000000	11.831151
381.000000	11.485079
380.000000	11.128484
379.000000	10.764950
378.000000	10.391231
377.000000	10.097852
376.000000	9.840338
375.000000	9.610943
374.000000	9.419091
373.000000	9.214080
372.000000	9.007204
371.000000	8.831226
370.000000	8.640662
369.000000	8.466755
368.000000	8.307072
367.000000	8.143404
366.000000	7.985424
365.000000	7.834892
364.000000	7.702363
363.000000	7.584239
362.000000	7.483521
361.000000	7.341689
360.000000	7.240691
359.000000	7.156868
358.000000	7.021679
357.000000	6.939641
356.000000	6.867569
355.000000	6.761935
354.000000	6.686810
353.000000	6.604181
352.000000	6.521282
351.000000	6.455413
350.000000	6.437941
349.000000	6.421789
348.000000	6.347066
347.000000	6.287471
346.000000	6.248518
345.000000	6.257934
344.000000	6.269848
343.000000	6.222329
342.000000	6.185047
341.000000	6.164459
340.000000	6.159806
339.000000	6.159252
338.000000	6.163920
337.000000	6.176664
336.000000	6.156984
335.000000	6.185332
334.000000	6.226658
333.000000	6.211736
332.000000	6.221011
331.000000	6.257733
330.000000	6.281582
329.000000	6.298426
328.000000	6.313454
327.000000	6.392577
326.000000	6.399838
325.000000	6.376451
324.000000	6.407520
323.000000	6.475525
322.000000	6.504277
321.000000	6.471069
320.000000	6.527201
319.000000	6.444259
318.000000	6.421670
317.000000	6.458401
316.000000	6.466555
315.000000	6.508037
314.000000	6.527878
313.000000	6.517574
312.000000	6.580926
311.000000	6.592817
310.000000	6.565851
309.000000	6.636667
308.000000	6.602083
307.000000	6.605748
306.000000	6.594441
305.000000	6.636101
304.000000	6.645781
303.000000	6.637950
302.000000	6.615185
301.000000	6.653635
300.000000	6.643776
299.000000	6.602266
298.000000	6.590540
297.000000	6.614759
296.000000	6.619604
295.000000	6.590115
294.000000	6.615383
293.000000	6.561498
292.000000	6.567151
291.000000	6.603497
290.000000	6.615139
289.000000	6.573460
288.000000	6.596370
287.000000	6.570690
286.000000	6.605718
285.000000	6.633061
284.000000	6.588021
283.000000	6.591860
282.000000	6.619345
281.000000	6.646837
280.000000	6.623339
279.000000	6.633580
278.000000	6.632298
277.000000	6.614180
276.000000	6.641298
275.000000	6.634146
274.000000	6.653605
273.000000	6.698322
272.000000	6.702642
271.000000	6.705930
270.000000	6.721992
269.000000	6.747051
268.000000	6.750703
267.000000	6.761126
266.000000	6.795321
265.000000	6.763228
264.000000	6.792005
263.000000	6.785002
262.000000	6.796730
261.000000	6.828967
260.000000	6.814610
259.000000	6.788237
258.000000	6.840014
257.000000	6.817482
256.000000	6.828448
255.000000	6.852815
254.000000	6.840109
253.000000	6.836613
252.000000	6.869704
251.000000	6.873264
250.000000	6.860962
249.000000	6.886127
248.000000	6.895472
247.000000	6.921241
246.000000	6.951235
245.000000	6.953925
244.000000	6.965656
243.000000	6.985862
242.000000	6.998356
241.000000	7.010823
240.000000	7.043216
239.000000	7.031889
238.000000	7.064981
237.000000	7.053911
236.000000	7.098180
235.000000	7.133391
234.000000	7.072354
233.000000	7.152552
232.000000	7.149143
231.000000	7.212121
230.000000	7.237940
229.000000	7.216955
228.000000	7.260190
227.000000	7.290209
226.000000	7.313327
225.000000	7.354210
224.000000	7.369058
223.000000	7.394469
222.000000	7.393124
221.000000	7.418567
220.000000	7.477734
219.000000	7.492987
218.000000	7.531839
217.000000	7.624336
216.000000	7.636757
215.000000	7.643249
214.000000	7.717382
213.000000	7.723764
212.000000	7.745099
211.000000	7.804930
210.000000	7.803456
209.000000	7.884806
208.000000	7.904347
207.000000	7.931713
206.000000	8.002948
205.000000	8.063266
204.000000	8.150439
203.000000	8.238801
202.000000	8.290066
201.000000	8.398525
200.000000	8.555709
199.000000	8.664650
198.000000	8.700376
197.000000	8.799439
196.000000	8.734941
195.000000	9.091782
194.000000	9.283762
193.000000	9.738386
192.000000	10.403608
191.000000	11.122874
190.000000	13.050225
189.000000	18.802777
188.000000	34.640807
187.000000	68.025854
186.000000	90.900234
185.000000	100.509705
184.000000	98.412893
183.000000	94.543135
182.000000	97.015919
181.000000	97.531297
180.000000	97.463499
179.000000	102.725438
178.000000	102.718342
177.000000	97.488637
176.000000	101.244397
175.000000	95.118502
