PE UV       SUBTECH     SPECTRUM    ASCII       PEDS        4.00        
   -1
Sample10.Sample.Raw.asc
25/05/30
13:02:02.00
25/05/30
13:02:02.00
tom jordan
DDQ R4 (extra scan!)
175.000000
1
Lambda 1050
1050L1807051
PerkinElmer UV WinLab 6.4.0.973 / 2.02.06 Lambda 900 UV/VIS/NIR, Jan 28 2016 16:58:34

0
0
3350/servo 860.8/2
0
0
UV/VIS
1
1
1
RBeamAtt,SBeamAtt,150mm sphere / downward view, WB InGaAs Detector
0
0
0
0
Program
Program
3350/servo 860.8/2
3350/0.2 860.8/0.2
3350/0.2 860.8/0.2
0
1.00
 
 
 
0
 
860.8
319.2
860.8
Front
100
 
S:100 R:100
 
0
0
0
 
0
 
 
 
0
 
 
0
0
0
0
0
 
 
 
 
0
0


0
0
#HDR
-1
-1
#GR
nm
A
1.0
0.0
2000.000000
-1.000000
1826
8
1.208640
-0.018517
#DATA
2000.000000	0.989764
1999.000000	0.993313
1998.000000	0.995471
1997.000000	0.981228
1996.000000	0.988759
1995.000000	0.984624
1994.000000	0.988720
1993.000000	0.992568
1992.000000	0.989495
1991.000000	0.986110
1990.000000	0.981249
1989.000000	0.983121
1988.000000	0.977967
1987.000000	0.984536
1986.000000	0.985096
1985.000000	0.995056
1984.000000	0.986171
1983.000000	0.986882
1982.000000	0.991270
1981.000000	1.002502
1980.000000	0.993321
1979.000000	0.988054
1978.000000	0.989814
1977.000000	0.994746
1976.000000	0.980645
1975.000000	0.988862
1974.000000	0.988397
1973.000000	0.993061
1972.000000	0.993266
1971.000000	0.993023
1970.000000	0.984366
1969.000000	0.980271
1968.000000	0.984359
1967.000000	0.993900
1966.000000	1.002402
1965.000000	1.005271
1964.000000	0.995806
1963.000000	0.982203
1962.000000	0.986181
1961.000000	0.996079
1960.000000	0.995182
1959.000000	0.986904
1958.000000	0.988243
1957.000000	0.982481
1956.000000	0.987859
1955.000000	0.982398
1954.000000	0.993136
1953.000000	0.987192
1952.000000	0.983690
1951.000000	0.981407
1950.000000	0.986034
1949.000000	0.977904
1948.000000	0.989186
1947.000000	0.986991
1946.000000	0.985959
1945.000000	0.989190
1944.000000	0.991867
1943.000000	0.980353
1942.000000	0.977406
1941.000000	0.978376
1940.000000	0.982023
1939.000000	0.986002
1938.000000	0.990261
1937.000000	0.981229
1936.000000	0.977393
1935.000000	0.970528
1934.000000	0.999399
1933.000000	1.010164
1932.000000	1.001758
1931.000000	0.997020
1930.000000	0.979617
1929.000000	0.968610
1928.000000	0.974292
1927.000000	0.985372
1926.000000	0.985518
1925.000000	0.970332
1924.000000	0.972970
1923.000000	0.975649
1922.000000	0.973500
1921.000000	0.972675
1920.000000	0.978041
1919.000000	0.976575
1918.000000	0.984325
1917.000000	0.993020
1916.000000	0.992874
1915.000000	0.978106
1914.000000	0.978542
1913.000000	0.982188
1912.000000	0.975977
1911.000000	0.977958
1910.000000	0.987299
1909.000000	0.979101
1908.000000	0.963044
1907.000000	0.965218
1906.000000	0.970032
1905.000000	0.970278
1904.000000	0.968092
1903.000000	0.961739
1902.000000	0.963538
1901.000000	0.971394
1900.000000	0.972351
1899.000000	0.970251
1898.000000	0.968146
1897.000000	0.973711
1896.000000	0.974292
1895.000000	0.973441
1894.000000	0.969435
1893.000000	0.980880
1892.000000	0.993300
1891.000000	0.991627
1890.000000	0.976861
1889.000000	0.959708
1888.000000	0.959398
1887.000000	0.972063
1886.000000	0.977110
1885.000000	0.971980
1884.000000	0.977329
1883.000000	0.984362
1882.000000	0.982413
1881.000000	0.978937
1880.000000	0.976707
1879.000000	0.981172
1878.000000	0.986589
1877.000000	0.987485
1876.000000	0.981050
1875.000000	0.977786
1874.000000	0.978053
1873.000000	0.970609
1872.000000	0.975302
1871.000000	0.984562
1870.000000	0.981843
1869.000000	0.974004
1868.000000	0.974695
1867.000000	0.973244
1866.000000	0.969237
1865.000000	0.978564
1864.000000	0.984354
1863.000000	0.984114
1862.000000	0.987161
1861.000000	0.981173
1860.000000	0.976882
1859.000000	0.977340
1858.000000	0.980233
1857.000000	0.984864
1856.000000	0.982988
1855.000000	0.985503
1854.000000	0.981664
1853.000000	0.977864
1852.000000	0.978448
1851.000000	0.983639
1850.000000	0.987423
1849.000000	0.987566
1848.000000	0.980919
1847.000000	0.976865
1846.000000	0.973203
1845.000000	0.981446
1844.000000	0.982504
1843.000000	0.984358
1842.000000	0.983309
1841.000000	0.981220
1840.000000	0.984473
1839.000000	0.982777
1838.000000	0.980500
1837.000000	0.982773
1836.000000	0.983487
1835.000000	0.984404
1834.000000	0.983095
1833.000000	0.988676
1832.000000	0.987780
1831.000000	0.993742
1830.000000	0.981988
1829.000000	0.984630
1828.000000	0.985347
1827.000000	0.984310
1826.000000	0.981596
1825.000000	0.983835
1824.000000	0.989812
1823.000000	0.994908
1822.000000	0.986713
1821.000000	0.991093
1820.000000	0.987612
1819.000000	0.986866
1818.000000	0.985614
1817.000000	0.987589
1816.000000	0.989668
1815.000000	0.992482
1814.000000	0.989839
1813.000000	0.986117
1812.000000	0.979222
1811.000000	0.981572
1810.000000	0.982472
1809.000000	0.989733
1808.000000	0.987277
1807.000000	0.987127
1806.000000	0.984523
1805.000000	0.981610
1804.000000	0.982515
1803.000000	0.983771
1802.000000	0.989549
1801.000000	0.988972
1800.000000	0.987373
1799.000000	0.981206
1798.000000	0.984078
1797.000000	0.977852
1796.000000	0.980343
1795.000000	0.981073
1794.000000	0.980608
1793.000000	0.981970
1792.000000	0.988547
1791.000000	0.982109
1790.000000	0.982448
1789.000000	0.979298
1788.000000	0.986724
1787.000000	0.979367
1786.000000	0.985794
1785.000000	0.986219
1784.000000	0.986796
1783.000000	0.979841
1782.000000	0.982507
1781.000000	0.985795
1780.000000	0.980784
1779.000000	0.982969
1778.000000	0.978093
1777.000000	0.978901
1776.000000	0.975255
1775.000000	0.976805
1774.000000	0.979612
1773.000000	0.985827
1772.000000	0.983148
1771.000000	0.978731
1770.000000	0.977918
1769.000000	0.979647
1768.000000	0.976265
1767.000000	0.986088
1766.000000	0.976663
1765.000000	0.987850
1764.000000	0.982681
1763.000000	0.980733
1762.000000	0.977602
1761.000000	0.977567
1760.000000	0.975058
1759.000000	0.982435
1758.000000	0.981945
1757.000000	0.981409
1756.000000	0.974231
1755.000000	0.972179
1754.000000	0.980616
1753.000000	0.981771
1752.000000	0.980756
1751.000000	0.978476
1750.000000	0.976162
1749.000000	0.973022
1748.000000	0.975379
1747.000000	0.977649
1746.000000	0.979643
1745.000000	0.978394
1744.000000	0.976652
1743.000000	0.979937
1742.000000	0.973580
1741.000000	0.974294
1740.000000	0.976551
1739.000000	0.974027
1738.000000	0.980862
1737.000000	0.974624
1736.000000	0.972051
1735.000000	0.970102
1734.000000	0.970845
1733.000000	0.966543
1732.000000	0.972044
1731.000000	0.974693
1730.000000	0.976097
1729.000000	0.972070
1728.000000	0.974106
1727.000000	0.972606
1726.000000	0.971314
1725.000000	0.977400
1724.000000	0.979979
1723.000000	0.975807
1722.000000	0.978567
1721.000000	0.978302
1720.000000	0.970350
1719.000000	0.971066
1718.000000	0.970434
1717.000000	0.973751
1716.000000	0.973361
1715.000000	0.971724
1714.000000	0.969416
1713.000000	0.970379
1712.000000	0.968793
1711.000000	0.974929
1710.000000	0.977381
1709.000000	0.974718
1708.000000	0.971033
1707.000000	0.973820
1706.000000	0.968638
1705.000000	0.967050
1704.000000	0.966093
1703.000000	0.971387
1702.000000	0.975900
1701.000000	0.973564
1700.000000	0.970638
1699.000000	0.971297
1698.000000	0.969053
1697.000000	0.967272
1696.000000	0.972356
1695.000000	0.970531
1694.000000	0.974134
1693.000000	0.972814
1692.000000	0.970220
1691.000000	0.968696
1690.000000	0.970707
1689.000000	0.967745
1688.000000	0.968177
1687.000000	0.969669
1686.000000	0.970971
1685.000000	0.971582
1684.000000	0.969812
1683.000000	0.968428
1682.000000	0.966945
1681.000000	0.969040
1680.000000	0.970816
1679.000000	0.970425
1678.000000	0.967641
1677.000000	0.969823
1676.000000	0.968549
1675.000000	0.966725
1674.000000	0.965063
1673.000000	0.967819
1672.000000	0.968541
1671.000000	0.970050
1670.000000	0.969346
1669.000000	0.967523
1668.000000	0.969140
1667.000000	0.967317
1666.000000	0.966349
1665.000000	0.965849
1664.000000	0.966902
1663.000000	0.968612
1662.000000	0.967843
1661.000000	0.966843
1660.000000	0.968020
1659.000000	0.968340
1658.000000	0.967715
1657.000000	0.967419
1656.000000	0.967314
1655.000000	0.963168
1654.000000	0.964025
1653.000000	0.965702
1652.000000	0.963950
1651.000000	0.962130
1650.000000	0.965660
1649.000000	0.967567
1648.000000	0.963404
1647.000000	0.960579
1646.000000	0.962075
1645.000000	0.963833
1644.000000	0.964495
1643.000000	0.964675
1642.000000	0.964723
1641.000000	0.963659
1640.000000	0.962715
1639.000000	0.964024
1638.000000	0.965386
1637.000000	0.963609
1636.000000	0.964097
1635.000000	0.965543
1634.000000	0.962892
1633.000000	0.960568
1632.000000	0.960720
1631.000000	0.962047
1630.000000	0.963602
1629.000000	0.962189
1628.000000	0.963153
1627.000000	0.960522
1626.000000	0.958882
1625.000000	0.959231
1624.000000	0.959928
1623.000000	0.960968
1622.000000	0.961779
1621.000000	0.963501
1620.000000	0.965525
1619.000000	0.962739
1618.000000	0.958496
1617.000000	0.958642
1616.000000	0.961374
1615.000000	0.963621
1614.000000	0.960658
1613.000000	0.960314
1612.000000	0.957558
1611.000000	0.959356
1610.000000	0.959640
1609.000000	0.961968
1608.000000	0.961776
1607.000000	0.958361
1606.000000	0.959683
1605.000000	0.959943
1604.000000	0.958184
1603.000000	0.959319
1602.000000	0.961097
1601.000000	0.959663
1600.000000	0.957951
1599.000000	0.958924
1598.000000	0.959625
1597.000000	0.958046
1596.000000	0.959886
1595.000000	0.958402
1594.000000	0.959164
1593.000000	0.959579
1592.000000	0.957570
1591.000000	0.954687
1590.000000	0.956990
1589.000000	0.955132
1588.000000	0.958600
1587.000000	0.959414
1586.000000	0.956097
1585.000000	0.956640
1584.000000	0.954184
1583.000000	0.956092
1582.000000	0.955843
1581.000000	0.956260
1580.000000	0.954967
1579.000000	0.957553
1578.000000	0.955475
1577.000000	0.954694
1576.000000	0.954416
1575.000000	0.955713
1574.000000	0.959294
1573.000000	0.956190
1572.000000	0.956230
1571.000000	0.954091
1570.000000	0.955713
1569.000000	0.954471
1568.000000	0.954297
1567.000000	0.950839
1566.000000	0.955428
1565.000000	0.953756
1564.000000	0.952132
1563.000000	0.951037
1562.000000	0.952278
1561.000000	0.954789
1560.000000	0.952540
1559.000000	0.954198
1558.000000	0.951445
1557.000000	0.952467
1556.000000	0.951104
1555.000000	0.954730
1554.000000	0.952270
1553.000000	0.951843
1552.000000	0.950574
1551.000000	0.951551
1550.000000	0.954624
1549.000000	0.951311
1548.000000	0.951406
1547.000000	0.949738
1546.000000	0.951444
1545.000000	0.949597
1544.000000	0.952184
1543.000000	0.952939
1542.000000	0.947961
1541.000000	0.947880
1540.000000	0.947443
1539.000000	0.953540
1538.000000	0.950428
1537.000000	0.949939
1536.000000	0.946350
1535.000000	0.947434
1534.000000	0.949211
1533.000000	0.949101
1532.000000	0.951115
1531.000000	0.949296
1530.000000	0.952580
1529.000000	0.945860
1528.000000	0.947850
1527.000000	0.943410
1526.000000	0.947506
1525.000000	0.946892
1524.000000	0.949012
1523.000000	0.947231
1522.000000	0.946427
1521.000000	0.944520
1520.000000	0.943530
1519.000000	0.944537
1518.000000	0.945815
1517.000000	0.947469
1516.000000	0.945663
1515.000000	0.943824
1514.000000	0.940969
1513.000000	0.942874
1512.000000	0.942398
1511.000000	0.946402
1510.000000	0.945032
1509.000000	0.943579
1508.000000	0.942756
1507.000000	0.944050
1506.000000	0.943989
1505.000000	0.943019
1504.000000	0.944698
1503.000000	0.943407
1502.000000	0.944172
1501.000000	0.944304
1500.000000	0.942688
1499.000000	0.942676
1498.000000	0.942894
1497.000000	0.944745
1496.000000	0.943509
1495.000000	0.941137
1494.000000	0.941111
1493.000000	0.943232
1492.000000	0.941035
1491.000000	0.944220
1490.000000	0.942806
1489.000000	0.942427
1488.000000	0.943058
1487.000000	0.940216
1486.000000	0.940236
1485.000000	0.937724
1484.000000	0.940294
1483.000000	0.940202
1482.000000	0.941155
1481.000000	0.938488
1480.000000	0.938610
1479.000000	0.938898
1478.000000	0.939306
1477.000000	0.942678
1476.000000	0.942308
1475.000000	0.940809
1474.000000	0.935634
1473.000000	0.937472
1472.000000	0.935795
1471.000000	0.938444
1470.000000	0.937874
1469.000000	0.937720
1468.000000	0.936930
1467.000000	0.936086
1466.000000	0.935526
1465.000000	0.935154
1464.000000	0.936402
1463.000000	0.935738
1462.000000	0.936373
1461.000000	0.936546
1460.000000	0.935078
1459.000000	0.933105
1458.000000	0.933814
1457.000000	0.934433
1456.000000	0.935783
1455.000000	0.936670
1454.000000	0.936266
1453.000000	0.934787
1452.000000	0.932784
1451.000000	0.933679
1450.000000	0.934360
1449.000000	0.934471
1448.000000	0.934613
1447.000000	0.934201
1446.000000	0.933581
1445.000000	0.932281
1444.000000	0.933156
1443.000000	0.932658
1442.000000	0.934873
1441.000000	0.933261
1440.000000	0.932721
1439.000000	0.930249
1438.000000	0.929935
1437.000000	0.931646
1436.000000	0.931616
1435.000000	0.932532
1434.000000	0.931799
1433.000000	0.932371
1432.000000	0.930002
1431.000000	0.927904
1430.000000	0.929176
1429.000000	0.931757
1428.000000	0.931662
1427.000000	0.929002
1426.000000	0.928471
1425.000000	0.927376
1424.000000	0.927869
1423.000000	0.928919
1422.000000	0.931419
1421.000000	0.931200
1420.000000	0.929381
1419.000000	0.928265
1418.000000	0.928071
1417.000000	0.927878
1416.000000	0.926938
1415.000000	0.927246
1414.000000	0.926896
1413.000000	0.927511
1412.000000	0.926620
1411.000000	0.925713
1410.000000	0.925210
1409.000000	0.925628
1408.000000	0.925363
1407.000000	0.925702
1406.000000	0.925308
1405.000000	0.923411
1404.000000	0.922912
1403.000000	0.923865
1402.000000	0.926646
1401.000000	0.926468
1400.000000	0.926696
1399.000000	0.926155
1398.000000	0.925828
1397.000000	0.923939
1396.000000	0.923668
1395.000000	0.923887
1394.000000	0.924477
1393.000000	0.923870
1392.000000	0.922345
1391.000000	0.922764
1390.000000	0.923363
1389.000000	0.923990
1388.000000	0.924034
1387.000000	0.924656
1386.000000	0.923494
1385.000000	0.924289
1384.000000	0.922113
1383.000000	0.921276
1382.000000	0.922221
1381.000000	0.922887
1380.000000	0.921998
1379.000000	0.919228
1378.000000	0.918543
1377.000000	0.920890
1376.000000	0.922809
1375.000000	0.922897
1374.000000	0.921834
1373.000000	0.920629
1372.000000	0.921289
1371.000000	0.920594
1370.000000	0.921309
1369.000000	0.921807
1368.000000	0.919293
1367.000000	0.919260
1366.000000	0.918425
1365.000000	0.918016
1364.000000	0.918941
1363.000000	0.918641
1362.000000	0.917739
1361.000000	0.917145
1360.000000	0.916720
1359.000000	0.917289
1358.000000	0.917050
1357.000000	0.915319
1356.000000	0.916092
1355.000000	0.916176
1354.000000	0.916150
1353.000000	0.916190
1352.000000	0.915390
1351.000000	0.915895
1350.000000	0.917046
1349.000000	0.916073
1348.000000	0.914920
1347.000000	0.916774
1346.000000	0.916122
1345.000000	0.916754
1344.000000	0.915407
1343.000000	0.915140
1342.000000	0.915158
1341.000000	0.913908
1340.000000	0.913473
1339.000000	0.914191
1338.000000	0.915413
1337.000000	0.915324
1336.000000	0.914425
1335.000000	0.913599
1334.000000	0.913528
1333.000000	0.913574
1332.000000	0.915133
1331.000000	0.915007
1330.000000	0.914572
1329.000000	0.913102
1328.000000	0.910878
1327.000000	0.910754
1326.000000	0.911375
1325.000000	0.912412
1324.000000	0.912761
1323.000000	0.913313
1322.000000	0.911607
1321.000000	0.911861
1320.000000	0.911986
1319.000000	0.911298
1318.000000	0.911511
1317.000000	0.910503
1316.000000	0.910823
1315.000000	0.910570
1314.000000	0.910937
1313.000000	0.911394
1312.000000	0.911372
1311.000000	0.909494
1310.000000	0.908619
1309.000000	0.909697
1308.000000	0.910480
1307.000000	0.909280
1306.000000	0.909405
1305.000000	0.909997
1304.000000	0.907497
1303.000000	0.907914
1302.000000	0.908146
1301.000000	0.908922
1300.000000	0.909808
1299.000000	0.907422
1298.000000	0.906450
1297.000000	0.905598
1296.000000	0.907266
1295.000000	0.906300
1294.000000	0.905675
1293.000000	0.904502
1292.000000	0.905462
1291.000000	0.904267
1290.000000	0.905397
1289.000000	0.904920
1288.000000	0.905555
1287.000000	0.904429
1286.000000	0.904019
1285.000000	0.903344
1284.000000	0.904364
1283.000000	0.904367
1282.000000	0.903072
1281.000000	0.901057
1280.000000	0.901067
1279.000000	0.899502
1278.000000	0.901839
1277.000000	0.901704
1276.000000	0.903063
1275.000000	0.903201
1274.000000	0.901235
1273.000000	0.899931
1272.000000	0.900341
1271.000000	0.900471
1270.000000	0.901084
1269.000000	0.899631
1268.000000	0.898373
1267.000000	0.899032
1266.000000	0.898501
1265.000000	0.898394
1264.000000	0.898927
1263.000000	0.899513
1262.000000	0.897582
1261.000000	0.896186
1260.000000	0.896503
1259.000000	0.899090
1258.000000	0.897364
1257.000000	0.897946
1256.000000	0.896759
1255.000000	0.896748
1254.000000	0.897923
1253.000000	0.896213
1252.000000	0.897054
1251.000000	0.896580
1250.000000	0.895463
1249.000000	0.894820
1248.000000	0.893813
1247.000000	0.895069
1246.000000	0.893668
1245.000000	0.894812
1244.000000	0.893348
1243.000000	0.894120
1242.000000	0.892352
1241.000000	0.892643
1240.000000	0.893193
1239.000000	0.893603
1238.000000	0.893136
1237.000000	0.892752
1236.000000	0.891652
1235.000000	0.892465
1234.000000	0.890840
1233.000000	0.891301
1232.000000	0.891412
1231.000000	0.890640
1230.000000	0.889602
1229.000000	0.890175
1228.000000	0.891568
1227.000000	0.890395
1226.000000	0.889304
1225.000000	0.890021
1224.000000	0.888638
1223.000000	0.887279
1222.000000	0.888834
1221.000000	0.888689
1220.000000	0.888242
1219.000000	0.888515
1218.000000	0.887773
1217.000000	0.888438
1216.000000	0.888090
1215.000000	0.887782
1214.000000	0.887468
1213.000000	0.887398
1212.000000	0.887833
1211.000000	0.886285
1210.000000	0.885505
1209.000000	0.884286
1208.000000	0.884840
1207.000000	0.884290
1206.000000	0.884140
1205.000000	0.884393
1204.000000	0.885329
1203.000000	0.883701
1202.000000	0.883823
1201.000000	0.884601
1200.000000	0.883824
1199.000000	0.884437
1198.000000	0.883115
1197.000000	0.883236
1196.000000	0.882841
1195.000000	0.882974
1194.000000	0.882031
1193.000000	0.881578
1192.000000	0.882473
1191.000000	0.881168
1190.000000	0.879873
1189.000000	0.881204
1188.000000	0.881676
1187.000000	0.880897
1186.000000	0.880128
1185.000000	0.879516
1184.000000	0.880201
1183.000000	0.881102
1182.000000	0.880081
1181.000000	0.879829
1180.000000	0.879275
1179.000000	0.878085
1178.000000	0.878549
1177.000000	0.878761
1176.000000	0.879535
1175.000000	0.878434
1174.000000	0.877051
1173.000000	0.877300
1172.000000	0.877079
1171.000000	0.876728
1170.000000	0.876457
1169.000000	0.876261
1168.000000	0.875896
1167.000000	0.876144
1166.000000	0.875637
1165.000000	0.874796
1164.000000	0.875502
1163.000000	0.876248
1162.000000	0.876086
1161.000000	0.875546
1160.000000	0.874718
1159.000000	0.874856
1158.000000	0.874592
1157.000000	0.874903
1156.000000	0.874511
1155.000000	0.872623
1154.000000	0.872982
1153.000000	0.873421
1152.000000	0.872934
1151.000000	0.872346
1150.000000	0.872601
1149.000000	0.871705
1148.000000	0.870307
1147.000000	0.871079
1146.000000	0.871795
1145.000000	0.870690
1144.000000	0.869899
1143.000000	0.870188
1142.000000	0.870367
1141.000000	0.870045
1140.000000	0.870299
1139.000000	0.871304
1138.000000	0.870828
1137.000000	0.869375
1136.000000	0.868718
1135.000000	0.868990
1134.000000	0.868368
1133.000000	0.867298
1132.000000	0.866375
1131.000000	0.865821
1130.000000	0.866136
1129.000000	0.866027
1128.000000	0.866994
1127.000000	0.866363
1126.000000	0.866930
1125.000000	0.866889
1124.000000	0.865213
1123.000000	0.864680
1122.000000	0.865677
1121.000000	0.866599
1120.000000	0.866287
1119.000000	0.866509
1118.000000	0.864032
1117.000000	0.864108
1116.000000	0.864447
1115.000000	0.863632
1114.000000	0.862434
1113.000000	0.861812
1112.000000	0.861805
1111.000000	0.862018
1110.000000	0.862144
1109.000000	0.862348
1108.000000	0.863007
1107.000000	0.861312
1106.000000	0.860203
1105.000000	0.861292
1104.000000	0.861297
1103.000000	0.860571
1102.000000	0.860468
1101.000000	0.859353
1100.000000	0.858656
1099.000000	0.859963
1098.000000	0.860536
1097.000000	0.862115
1096.000000	0.858904
1095.000000	0.857658
1094.000000	0.858080
1093.000000	0.858445
1092.000000	0.857009
1091.000000	0.857017
1090.000000	0.857076
1089.000000	0.856895
1088.000000	0.855672
1087.000000	0.857116
1086.000000	0.856660
1085.000000	0.855601
1084.000000	0.855826
1083.000000	0.853560
1082.000000	0.854688
1081.000000	0.854462
1080.000000	0.856579
1079.000000	0.854374
1078.000000	0.854958
1077.000000	0.855912
1076.000000	0.852720
1075.000000	0.853108
1074.000000	0.853421
1073.000000	0.853739
1072.000000	0.853333
1071.000000	0.853533
1070.000000	0.850299
1069.000000	0.851359
1068.000000	0.851732
1067.000000	0.852277
1066.000000	0.851678
1065.000000	0.850008
1064.000000	0.850851
1063.000000	0.849775
1062.000000	0.850396
1061.000000	0.849676
1060.000000	0.850908
1059.000000	0.850648
1058.000000	0.850289
1057.000000	0.848063
1056.000000	0.850603
1055.000000	0.848376
1054.000000	0.849257
1053.000000	0.847277
1052.000000	0.849011
1051.000000	0.846908
1050.000000	0.847599
1049.000000	0.847622
1048.000000	0.846781
1047.000000	0.847109
1046.000000	0.843691
1045.000000	0.846244
1044.000000	0.845012
1043.000000	0.846450
1042.000000	0.848909
1041.000000	0.846941
1040.000000	0.844987
1039.000000	0.845736
1038.000000	0.845645
1037.000000	0.846207
1036.000000	0.843496
1035.000000	0.843516
1034.000000	0.841273
1033.000000	0.842962
1032.000000	0.844982
1031.000000	0.842138
1030.000000	0.844049
1029.000000	0.842218
1028.000000	0.840796
1027.000000	0.842275
1026.000000	0.843022
1025.000000	0.843763
1024.000000	0.840907
1023.000000	0.839453
1022.000000	0.836871
1021.000000	0.841164
1020.000000	0.841359
1019.000000	0.840320
1018.000000	0.840499
1017.000000	0.840665
1016.000000	0.835668
1015.000000	0.838367
1014.000000	0.839093
1013.000000	0.838026
1012.000000	0.837959
1011.000000	0.835509
1010.000000	0.832523
1009.000000	0.836210
1008.000000	0.835544
1007.000000	0.834641
1006.000000	0.836786
1005.000000	0.834445
1004.000000	0.835259
1003.000000	0.836372
1002.000000	0.836118
1001.000000	0.833335
1000.000000	0.833115
999.000000	0.833217
998.000000	0.834820
997.000000	0.834009
996.000000	0.834298
995.000000	0.833620
994.000000	0.832140
993.000000	0.832578
992.000000	0.831573
991.000000	0.834658
990.000000	0.831347
989.000000	0.832716
988.000000	0.832913
987.000000	0.832434
986.000000	0.828396
985.000000	0.827833
984.000000	0.828316
983.000000	0.832041
982.000000	0.829285
981.000000	0.827143
980.000000	0.827138
979.000000	0.828597
978.000000	0.827791
977.000000	0.828770
976.000000	0.826758
975.000000	0.821690
974.000000	0.824056
973.000000	0.824751
972.000000	0.827989
971.000000	0.827684
970.000000	0.829535
969.000000	0.823561
968.000000	0.824519
967.000000	0.826104
966.000000	0.828631
965.000000	0.826611
964.000000	0.824941
963.000000	0.821222
962.000000	0.823230
961.000000	0.822498
960.000000	0.823270
959.000000	0.821553
958.000000	0.821995
957.000000	0.820780
956.000000	0.821091
955.000000	0.824149
954.000000	0.824141
953.000000	0.824610
952.000000	0.822488
951.000000	0.821080
950.000000	0.820649
949.000000	0.821719
948.000000	0.820823
947.000000	0.820208
946.000000	0.813933
945.000000	0.815870
944.000000	0.815617
943.000000	0.815968
942.000000	0.816785
941.000000	0.817894
940.000000	0.816657
939.000000	0.816210
938.000000	0.817357
937.000000	0.818029
936.000000	0.819265
935.000000	0.817173
934.000000	0.813532
933.000000	0.811286
932.000000	0.816953
931.000000	0.817616
930.000000	0.816273
929.000000	0.814195
928.000000	0.811717
927.000000	0.813427
926.000000	0.816207
925.000000	0.813516
924.000000	0.812264
923.000000	0.807469
922.000000	0.803913
921.000000	0.805856
920.000000	0.810435
919.000000	0.813319
918.000000	0.811553
917.000000	0.806966
916.000000	0.801600
915.000000	0.802422
914.000000	0.810978
913.000000	0.816753
912.000000	0.814085
911.000000	0.804402
910.000000	0.796754
909.000000	0.798544
908.000000	0.809512
907.000000	0.818973
906.000000	0.808796
905.000000	0.806437
904.000000	0.801064
903.000000	0.795733
902.000000	0.798239
901.000000	0.802404
900.000000	0.802260
899.000000	0.797828
898.000000	0.792723
897.000000	0.795581
896.000000	0.797990
895.000000	0.800056
894.000000	0.788920
893.000000	0.794462
892.000000	0.803306
891.000000	0.801230
890.000000	0.798609
889.000000	0.800500
888.000000	0.799471
887.000000	0.797281
886.000000	0.797961
885.000000	0.797063
884.000000	0.800034
883.000000	0.795100
882.000000	0.784535
881.000000	0.791131
880.000000	0.794706
879.000000	0.805703
878.000000	0.802037
877.000000	0.788419
876.000000	0.780352
875.000000	0.797196
874.000000	0.800021
873.000000	0.800021
872.000000	0.798236
871.000000	0.809246
870.000000	0.790025
869.000000	0.778167
868.000000	0.789306
867.000000	0.799539
866.000000	0.798467
865.000000	0.788677
864.000000	0.784173
863.000000	0.774750
862.000000	0.785650
861.000000	0.807338
860.000000	0.828191
859.000000	0.823510
858.000000	0.830096
857.000000	0.828741
856.000000	0.825064
855.000000	0.820176
854.000000	0.822090
853.000000	0.824095
852.000000	0.825207
851.000000	0.826170
850.000000	0.823118
849.000000	0.824108
848.000000	0.826657
847.000000	0.824212
846.000000	0.823886
845.000000	0.823319
844.000000	0.818401
843.000000	0.820209
842.000000	0.819667
841.000000	0.819829
840.000000	0.815337
839.000000	0.816747
838.000000	0.814650
837.000000	0.818247
836.000000	0.814050
835.000000	0.813405
834.000000	0.813861
833.000000	0.812763
832.000000	0.813117
831.000000	0.811943
830.000000	0.814083
829.000000	0.813463
828.000000	0.812784
827.000000	0.811598
826.000000	0.809034
825.000000	0.809119
824.000000	0.812523
823.000000	0.811781
822.000000	0.809926
821.000000	0.808168
820.000000	0.810009
819.000000	0.810287
818.000000	0.805590
817.000000	0.805960
816.000000	0.806392
815.000000	0.807562
814.000000	0.806553
813.000000	0.805130
812.000000	0.803274
811.000000	0.802672
810.000000	0.803691
809.000000	0.801894
808.000000	0.801632
807.000000	0.801518
806.000000	0.800796
805.000000	0.803627
804.000000	0.801617
803.000000	0.802405
802.000000	0.801786
801.000000	0.799086
800.000000	0.798567
799.000000	0.797546
798.000000	0.799223
797.000000	0.801041
796.000000	0.798293
795.000000	0.797829
794.000000	0.798863
793.000000	0.797057
792.000000	0.796655
791.000000	0.798178
790.000000	0.797030
789.000000	0.795944
788.000000	0.794730
787.000000	0.793753
786.000000	0.794766
785.000000	0.793208
784.000000	0.794459
783.000000	0.792681
782.000000	0.792227
781.000000	0.791161
780.000000	0.792947
779.000000	0.792606
778.000000	0.791633
777.000000	0.790667
776.000000	0.790659
775.000000	0.790268
774.000000	0.790088
773.000000	0.788366
772.000000	0.787496
771.000000	0.787865
770.000000	0.789672
769.000000	0.788084
768.000000	0.786481
767.000000	0.785764
766.000000	0.785802
765.000000	0.784869
764.000000	0.786415
763.000000	0.785388
762.000000	0.785142
761.000000	0.783985
760.000000	0.783579
759.000000	0.783961
758.000000	0.783234
757.000000	0.780358
756.000000	0.781037
755.000000	0.781379
754.000000	0.779452
753.000000	0.780331
752.000000	0.781431
751.000000	0.780860
750.000000	0.779740
749.000000	0.779958
748.000000	0.779068
747.000000	0.779167
746.000000	0.777076
745.000000	0.776986
744.000000	0.776792
743.000000	0.776086
742.000000	0.775115
741.000000	0.775304
740.000000	0.773610
739.000000	0.773543
738.000000	0.774461
737.000000	0.772881
736.000000	0.773400
735.000000	0.772370
734.000000	0.771750
733.000000	0.772165
732.000000	0.772992
731.000000	0.771584
730.000000	0.769415
729.000000	0.768759
728.000000	0.769642
727.000000	0.769392
726.000000	0.768557
725.000000	0.766680
724.000000	0.767154
723.000000	0.767009
722.000000	0.765855
721.000000	0.765797
720.000000	0.766390
719.000000	0.765894
718.000000	0.765704
717.000000	0.764273
716.000000	0.764037
715.000000	0.763652
714.000000	0.762433
713.000000	0.761454
712.000000	0.761090
711.000000	0.761475
710.000000	0.761130
709.000000	0.760372
708.000000	0.760404
707.000000	0.758898
706.000000	0.758953
705.000000	0.758615
704.000000	0.758332
703.000000	0.757848
702.000000	0.758006
701.000000	0.756527
700.000000	0.756452
699.000000	0.755530
698.000000	0.754650
697.000000	0.754601
696.000000	0.753977
695.000000	0.753479
694.000000	0.752891
693.000000	0.752572
692.000000	0.751939
691.000000	0.751600
690.000000	0.750964
689.000000	0.751081
688.000000	0.750306
687.000000	0.749408
686.000000	0.748851
685.000000	0.748477
684.000000	0.748415
683.000000	0.748179
682.000000	0.747233
681.000000	0.746767
680.000000	0.746138
679.000000	0.745825
678.000000	0.745080
677.000000	0.744453
676.000000	0.743615
675.000000	0.743343
674.000000	0.743084
673.000000	0.742563
672.000000	0.742005
671.000000	0.741736
670.000000	0.741563
669.000000	0.740830
668.000000	0.739977
667.000000	0.739573
666.000000	0.738867
665.000000	0.738460
664.000000	0.737338
663.000000	0.736714
662.000000	0.737051
661.000000	0.736273
660.000000	0.736002
659.000000	0.735509
658.000000	0.734594
657.000000	0.734144
656.000000	0.733872
655.000000	0.733293
654.000000	0.732740
653.000000	0.732388
652.000000	0.731663
651.000000	0.730692
650.000000	0.730457
649.000000	0.730018
648.000000	0.729420
647.000000	0.729080
646.000000	0.729038
645.000000	0.728346
644.000000	0.727436
643.000000	0.726955
642.000000	0.726350
641.000000	0.725881
640.000000	0.725065
639.000000	0.724610
638.000000	0.724237
637.000000	0.723387
636.000000	0.723100
635.000000	0.722826
634.000000	0.722142
633.000000	0.721636
632.000000	0.720905
631.000000	0.720202
630.000000	0.719443
629.000000	0.719366
628.000000	0.719197
627.000000	0.718664
626.000000	0.717665
625.000000	0.717160
624.000000	0.717162
623.000000	0.716234
622.000000	0.715668
621.000000	0.715555
620.000000	0.714850
619.000000	0.713954
618.000000	0.713711
617.000000	0.712970
616.000000	0.712202
615.000000	0.711694
614.000000	0.711220
613.000000	0.710867
612.000000	0.710079
611.000000	0.709780
610.000000	0.709458
609.000000	0.708698
608.000000	0.708223
607.000000	0.707837
606.000000	0.707382
605.000000	0.706707
604.000000	0.706395
603.000000	0.706203
602.000000	0.705577
601.000000	0.705464
600.000000	0.705260
599.000000	0.705220
598.000000	0.704936
597.000000	0.705278
596.000000	0.705391
595.000000	0.705534
594.000000	0.705496
593.000000	0.705691
592.000000	0.706438
591.000000	0.707179
590.000000	0.707989
589.000000	0.709281
588.000000	0.710248
587.000000	0.711479
586.000000	0.712196
585.000000	0.713808
584.000000	0.715294
583.000000	0.716497
582.000000	0.717284
581.000000	0.718467
580.000000	0.719827
579.000000	0.721185
578.000000	0.721234
577.000000	0.721734
576.000000	0.722557
575.000000	0.722590
574.000000	0.723353
573.000000	0.723354
572.000000	0.722990
571.000000	0.722477
570.000000	0.721941
569.000000	0.721891
568.000000	0.722016
567.000000	0.721102
566.000000	0.720348
565.000000	0.719752
564.000000	0.719652
563.000000	0.718655
562.000000	0.718908
561.000000	0.717624
560.000000	0.717578
559.000000	0.716908
558.000000	0.716403
557.000000	0.715256
556.000000	0.714100
555.000000	0.713952
554.000000	0.712866
553.000000	0.712207
552.000000	0.711305
551.000000	0.710992
550.000000	0.710047
549.000000	0.709155
548.000000	0.708412
547.000000	0.707728
546.000000	0.707276
545.000000	0.706133
544.000000	0.705470
543.000000	0.704164
542.000000	0.703488
541.000000	0.702890
540.000000	0.702531
539.000000	0.701632
538.000000	0.700852
537.000000	0.699985
536.000000	0.699734
535.000000	0.699164
534.000000	0.698919
533.000000	0.698264
532.000000	0.697550
531.000000	0.696864
530.000000	0.696626
529.000000	0.695400
528.000000	0.694853
527.000000	0.694893
526.000000	0.693983
525.000000	0.693118
524.000000	0.692657
523.000000	0.691957
522.000000	0.691332
521.000000	0.690447
520.000000	0.689451
519.000000	0.688675
518.000000	0.687738
517.000000	0.687118
516.000000	0.685580
515.000000	0.684641
514.000000	0.684105
513.000000	0.682617
512.000000	0.681971
511.000000	0.680528
510.000000	0.679900
509.000000	0.679307
508.000000	0.678238
507.000000	0.677628
506.000000	0.677302
505.000000	0.676684
504.000000	0.676484
503.000000	0.676903
502.000000	0.677117
501.000000	0.677864
500.000000	0.679205
499.000000	0.679942
498.000000	0.681327
497.000000	0.683147
496.000000	0.684625
495.000000	0.686459
494.000000	0.688410
493.000000	0.691035
492.000000	0.692852
491.000000	0.695432
490.000000	0.696661
489.000000	0.698562
488.000000	0.700346
487.000000	0.701465
486.000000	0.702946
485.000000	0.704044
484.000000	0.704659
483.000000	0.705407
482.000000	0.705681
481.000000	0.705802
480.000000	0.705521
479.000000	0.705505
478.000000	0.704400
477.000000	0.704404
476.000000	0.703574
475.000000	0.702809
474.000000	0.701977
473.000000	0.700874
472.000000	0.700314
471.000000	0.698718
470.000000	0.696989
469.000000	0.696231
468.000000	0.695564
467.000000	0.694116
466.000000	0.692662
465.000000	0.691809
464.000000	0.689935
463.000000	0.689202
462.000000	0.688194
461.000000	0.687539
460.000000	0.685820
459.000000	0.685108
458.000000	0.683857
457.000000	0.682720
456.000000	0.682313
455.000000	0.681799
454.000000	0.681125
453.000000	0.680439
452.000000	0.679420
451.000000	0.678136
450.000000	0.677867
449.000000	0.676374
448.000000	0.676488
447.000000	0.674922
446.000000	0.674441
445.000000	0.672712
444.000000	0.672379
443.000000	0.672369
442.000000	0.671654
441.000000	0.670079
440.000000	0.669143
439.000000	0.668101
438.000000	0.666757
437.000000	0.665714
436.000000	0.664825
435.000000	0.663149
434.000000	0.662486
433.000000	0.661777
432.000000	0.660280
431.000000	0.658624
430.000000	0.657314
429.000000	0.656293
428.000000	0.654972
427.000000	0.654303
426.000000	0.652845
425.000000	0.651379
424.000000	0.650852
423.000000	0.649731
422.000000	0.648820
421.000000	0.647925
420.000000	0.646370
419.000000	0.645276
418.000000	0.644147
417.000000	0.643417
416.000000	0.642262
415.000000	0.640764
414.000000	0.639633
413.000000	0.638733
412.000000	0.638024
411.000000	0.637463
410.000000	0.637806
409.000000	0.637645
408.000000	0.638261
407.000000	0.639374
406.000000	0.640337
405.000000	0.643076
404.000000	0.646533
403.000000	0.650087
402.000000	0.655642
401.000000	0.660955
400.000000	0.667937
399.000000	0.676415
398.000000	0.685557
397.000000	0.695827
396.000000	0.707304
395.000000	0.720782
394.000000	0.734605
393.000000	0.749241
392.000000	0.765812
391.000000	0.783116
390.000000	0.799575
389.000000	0.816454
388.000000	0.834344
387.000000	0.851216
386.000000	0.867181
385.000000	0.883470
384.000000	0.899346
383.000000	0.913974
382.000000	0.927634
381.000000	0.940351
380.000000	0.953506
379.000000	0.967933
378.000000	0.983396
377.000000	0.995418
376.000000	1.005373
375.000000	1.016790
374.000000	1.026804
373.000000	1.036003
372.000000	1.046215
371.000000	1.055524
370.000000	1.064104
369.000000	1.073123
368.000000	1.081487
367.000000	1.088704
366.000000	1.095294
365.000000	1.104186
364.000000	1.112643
363.000000	1.119632
362.000000	1.126969
361.000000	1.132415
360.000000	1.138229
359.000000	1.145949
358.000000	1.152640
357.000000	1.156573
356.000000	1.163366
355.000000	1.170019
354.000000	1.176499
353.000000	1.180979
352.000000	1.183240
351.000000	1.186929
350.000000	1.188614
349.000000	1.191433
348.000000	1.194982
347.000000	1.199752
346.000000	1.200881
345.000000	1.203346
344.000000	1.205986
343.000000	1.208640
342.000000	1.207329
341.000000	1.206350
340.000000	1.205948
339.000000	1.205256
338.000000	1.204829
337.000000	1.205303
336.000000	1.205195
335.000000	1.205484
334.000000	1.203720
333.000000	1.203315
332.000000	1.201534
331.000000	1.199847
330.000000	1.198719
329.000000	1.196122
328.000000	1.197655
327.000000	1.193984
326.000000	1.189883
325.000000	1.187196
324.000000	1.190240
323.000000	1.186943
322.000000	1.185359
321.000000	1.186587
320.000000	1.182234
319.000000	1.186778
318.000000	1.189664
317.000000	1.191508
316.000000	1.186692
315.000000	1.184693
314.000000	1.183767
313.000000	1.179021
312.000000	1.181095
311.000000	1.178888
310.000000	1.179542
309.000000	1.178997
308.000000	1.180575
307.000000	1.180007
306.000000	1.177161
305.000000	1.175755
304.000000	1.177218
303.000000	1.176222
302.000000	1.174582
301.000000	1.174500
300.000000	1.177794
299.000000	1.176222
298.000000	1.176193
297.000000	1.177337
296.000000	1.175859
295.000000	1.177325
294.000000	1.178203
293.000000	1.179724
292.000000	1.180117
291.000000	1.176102
290.000000	1.180486
289.000000	1.183462
288.000000	1.180278
287.000000	1.180951
286.000000	1.178945
285.000000	1.179828
284.000000	1.180089
283.000000	1.179199
282.000000	1.178917
281.000000	1.180423
280.000000	1.178292
279.000000	1.180784
278.000000	1.175321
277.000000	1.178647
276.000000	1.173463
275.000000	1.172776
274.000000	1.175793
273.000000	1.174034
272.000000	1.171392
271.000000	1.170877
270.000000	1.171909
269.000000	1.171780
268.000000	1.169930
267.000000	1.168816
266.000000	1.167619
265.000000	1.170104
264.000000	1.167472
263.000000	1.168373
262.000000	1.167486
261.000000	1.165730
260.000000	1.166645
259.000000	1.165907
258.000000	1.163664
257.000000	1.163238
256.000000	1.165001
255.000000	1.161032
254.000000	1.163936
253.000000	1.163956
252.000000	1.159926
251.000000	1.160526
250.000000	1.161177
249.000000	1.160522
248.000000	1.160533
247.000000	1.157183
246.000000	1.159436
245.000000	1.158066
244.000000	1.155871
243.000000	1.155234
242.000000	1.154810
241.000000	1.153033
240.000000	1.151883
239.000000	1.153709
238.000000	1.150488
237.000000	1.151674
236.000000	1.149314
235.000000	1.148349
234.000000	1.148183
233.000000	1.148804
232.000000	1.146882
231.000000	1.145775
230.000000	1.143202
229.000000	1.143346
228.000000	1.140816
227.000000	1.138828
226.000000	1.137151
225.000000	1.133196
224.000000	1.134750
223.000000	1.131853
222.000000	1.132184
221.000000	1.128530
220.000000	1.129586
219.000000	1.124893
218.000000	1.125701
217.000000	1.123675
216.000000	1.120996
215.000000	1.116277
214.000000	1.115438
213.000000	1.112875
212.000000	1.109218
211.000000	1.109817
210.000000	1.107539
209.000000	1.106157
208.000000	1.105146
207.000000	1.101592
206.000000	1.096364
205.000000	1.092967
204.000000	1.088868
203.000000	1.086503
202.000000	1.081925
201.000000	1.074386
200.000000	1.073533
199.000000	1.067855
198.000000	1.062010
197.000000	1.060238
196.000000	1.056717
195.000000	1.041875
194.000000	1.035184
193.000000	1.018094
192.000000	1.005350
191.000000	0.977433
190.000000	0.917953
189.000000	0.793478
188.000000	0.550835
187.000000	0.231741
186.000000	0.033649
185.000000	-0.006644
184.000000	-0.018517
183.000000	0.023132
182.000000	0.000272
181.000000	-0.013654
180.000000	0.005632
179.000000	-0.006398
178.000000	-0.017746
177.000000	-0.000035
176.000000	0.024475
175.000000	0.034533
