PE UV       SUBTECH     SPECTRUM    ASCII       PEDS        4.00        
   -1
100% or 0 Absorbance Baseline.Correction.Raw.asc
25/05/30
10:53:00.00
25/05/30
10:53:00.00
tom jordan

175.000000
1
Lambda 1050
1050L1807051
PerkinElmer UV WinLab 6.4.0.973 / 2.02.06 Lambda 900 UV/VIS/NIR, Jan 28 2016 16:58:34

0
0
3350/servo 860.8/2
0
0
UV/VIS
0
1
1
RBeamAtt,SBeamAtt,150mm sphere / downward view, WB InGaAs Detector
0
0
0
0
Program
Program
3350/servo 860.8/2
3350/0.2 860.8/0.2
3350/0.2 860.8/0.2
0
1.00
 
 
 
0
 
860.8
319.2
860.8
Front
100
 
S:100 R:100
 
0
0
0
 
0
 
 
 
0
 
 
0
0
0
0
0
 
 
 
 
0
0


0
0
#HDR
-1
-1
#GR
nm
A
1.0
0.0
2000.000000
-1.000000
1826
8
0.127601
-0.021463
#DATA
2000.000000	0.113738
1999.000000	0.114091
1998.000000	0.113672
1997.000000	0.114928
1996.000000	0.114059
1995.000000	0.113390
1994.000000	0.113703
1993.000000	0.114341
1992.000000	0.113649
1991.000000	0.113774
1990.000000	0.114306
1989.000000	0.114718
1988.000000	0.114890
1987.000000	0.116054
1986.000000	0.114821
1985.000000	0.114456
1984.000000	0.115378
1983.000000	0.116013
1982.000000	0.114547
1981.000000	0.114365
1980.000000	0.114061
1979.000000	0.114797
1978.000000	0.115140
1977.000000	0.116350
1976.000000	0.116542
1975.000000	0.115964
1974.000000	0.116662
1973.000000	0.116266
1972.000000	0.116475
1971.000000	0.115808
1970.000000	0.116635
1969.000000	0.116808
1968.000000	0.116258
1967.000000	0.115842
1966.000000	0.115626
1965.000000	0.115891
1964.000000	0.116740
1963.000000	0.117026
1962.000000	0.117298
1961.000000	0.116760
1960.000000	0.118147
1959.000000	0.118448
1958.000000	0.117685
1957.000000	0.117720
1956.000000	0.116984
1955.000000	0.117421
1954.000000	0.117439
1953.000000	0.117446
1952.000000	0.117705
1951.000000	0.118341
1950.000000	0.118610
1949.000000	0.118117
1948.000000	0.118124
1947.000000	0.117973
1946.000000	0.117807
1945.000000	0.116344
1944.000000	0.119313
1943.000000	0.118521
1942.000000	0.117343
1941.000000	0.117120
1940.000000	0.117337
1939.000000	0.118084
1938.000000	0.116799
1937.000000	0.117127
1936.000000	0.119213
1935.000000	0.117564
1934.000000	0.115811
1933.000000	0.115795
1932.000000	0.115632
1931.000000	0.116907
1930.000000	0.115754
1929.000000	0.115194
1928.000000	0.115474
1927.000000	0.115514
1926.000000	0.115970
1925.000000	0.115431
1924.000000	0.114202
1923.000000	0.113919
1922.000000	0.112707
1921.000000	0.113612
1920.000000	0.113062
1919.000000	0.112768
1918.000000	0.112374
1917.000000	0.112293
1916.000000	0.110214
1915.000000	0.112044
1914.000000	0.114245
1913.000000	0.113898
1912.000000	0.111508
1911.000000	0.112181
1910.000000	0.113406
1909.000000	0.112758
1908.000000	0.112790
1907.000000	0.112378
1906.000000	0.111266
1905.000000	0.112248
1904.000000	0.112041
1903.000000	0.112058
1902.000000	0.110758
1901.000000	0.109920
1900.000000	0.110832
1899.000000	0.109349
1898.000000	0.109066
1897.000000	0.110298
1896.000000	0.109765
1895.000000	0.110768
1894.000000	0.111235
1893.000000	0.109607
1892.000000	0.109557
1891.000000	0.110894
1890.000000	0.111721
1889.000000	0.112588
1888.000000	0.113098
1887.000000	0.113197
1886.000000	0.112388
1885.000000	0.112488
1884.000000	0.112228
1883.000000	0.111647
1882.000000	0.113239
1881.000000	0.113851
1880.000000	0.112509
1879.000000	0.111901
1878.000000	0.112575
1877.000000	0.113356
1876.000000	0.112847
1875.000000	0.112765
1874.000000	0.112845
1873.000000	0.112032
1872.000000	0.111149
1871.000000	0.111150
1870.000000	0.111084
1869.000000	0.110438
1868.000000	0.109990
1867.000000	0.109409
1866.000000	0.109602
1865.000000	0.109400
1864.000000	0.109953
1863.000000	0.109384
1862.000000	0.107962
1861.000000	0.108528
1860.000000	0.109373
1859.000000	0.109604
1858.000000	0.110131
1857.000000	0.110226
1856.000000	0.109606
1855.000000	0.110090
1854.000000	0.110077
1853.000000	0.109425
1852.000000	0.109618
1851.000000	0.110716
1850.000000	0.110721
1849.000000	0.109621
1848.000000	0.109911
1847.000000	0.110573
1846.000000	0.109864
1845.000000	0.109506
1844.000000	0.108823
1843.000000	0.108843
1842.000000	0.109006
1841.000000	0.109630
1840.000000	0.109634
1839.000000	0.110150
1838.000000	0.109148
1837.000000	0.109000
1836.000000	0.108855
1835.000000	0.109040
1834.000000	0.108194
1833.000000	0.107367
1832.000000	0.107905
1831.000000	0.107713
1830.000000	0.108060
1829.000000	0.108346
1828.000000	0.108005
1827.000000	0.108402
1826.000000	0.108469
1825.000000	0.108802
1824.000000	0.108817
1823.000000	0.109675
1822.000000	0.109086
1821.000000	0.109267
1820.000000	0.109629
1819.000000	0.110060
1818.000000	0.109033
1817.000000	0.109066
1816.000000	0.109310
1815.000000	0.108804
1814.000000	0.109243
1813.000000	0.109752
1812.000000	0.110875
1811.000000	0.110522
1810.000000	0.109547
1809.000000	0.110310
1808.000000	0.110726
1807.000000	0.110653
1806.000000	0.109945
1805.000000	0.110807
1804.000000	0.111452
1803.000000	0.111119
1802.000000	0.111123
1801.000000	0.111498
1800.000000	0.111114
1799.000000	0.111598
1798.000000	0.111726
1797.000000	0.111684
1796.000000	0.110952
1795.000000	0.112075
1794.000000	0.112809
1793.000000	0.112715
1792.000000	0.112574
1791.000000	0.113164
1790.000000	0.112804
1789.000000	0.113694
1788.000000	0.113001
1787.000000	0.113636
1786.000000	0.113598
1785.000000	0.113332
1784.000000	0.113099
1783.000000	0.113377
1782.000000	0.113200
1781.000000	0.113259
1780.000000	0.113248
1779.000000	0.112689
1778.000000	0.113647
1777.000000	0.113102
1776.000000	0.112895
1775.000000	0.113923
1774.000000	0.111732
1773.000000	0.112083
1772.000000	0.112325
1771.000000	0.112484
1770.000000	0.112189
1769.000000	0.111541
1768.000000	0.112082
1767.000000	0.113147
1766.000000	0.112814
1765.000000	0.111827
1764.000000	0.112620
1763.000000	0.113007
1762.000000	0.113554
1761.000000	0.112615
1760.000000	0.112072
1759.000000	0.112190
1758.000000	0.110977
1757.000000	0.112666
1756.000000	0.112405
1755.000000	0.112089
1754.000000	0.112963
1753.000000	0.112050
1752.000000	0.112591
1751.000000	0.112728
1750.000000	0.112366
1749.000000	0.112788
1748.000000	0.111677
1747.000000	0.111294
1746.000000	0.111438
1745.000000	0.112435
1744.000000	0.112515
1743.000000	0.112259
1742.000000	0.113895
1741.000000	0.112433
1740.000000	0.112804
1739.000000	0.112954
1738.000000	0.112879
1737.000000	0.112511
1736.000000	0.112639
1735.000000	0.112808
1734.000000	0.112506
1733.000000	0.111838
1732.000000	0.111791
1731.000000	0.112389
1730.000000	0.111724
1729.000000	0.112436
1728.000000	0.112250
1727.000000	0.112559
1726.000000	0.112743
1725.000000	0.112563
1724.000000	0.112212
1723.000000	0.112370
1722.000000	0.111979
1721.000000	0.112720
1720.000000	0.111940
1719.000000	0.111523
1718.000000	0.111840
1717.000000	0.111917
1716.000000	0.112323
1715.000000	0.112918
1714.000000	0.113100
1713.000000	0.112373
1712.000000	0.112370
1711.000000	0.111639
1710.000000	0.111408
1709.000000	0.111648
1708.000000	0.111950
1707.000000	0.112525
1706.000000	0.112713
1705.000000	0.112279
1704.000000	0.112341
1703.000000	0.111854
1702.000000	0.111267
1701.000000	0.112463
1700.000000	0.112077
1699.000000	0.111518
1698.000000	0.111676
1697.000000	0.112276
1696.000000	0.112329
1695.000000	0.112200
1694.000000	0.111571
1693.000000	0.111153
1692.000000	0.111854
1691.000000	0.112289
1690.000000	0.111971
1689.000000	0.111360
1688.000000	0.111715
1687.000000	0.112012
1686.000000	0.111828
1685.000000	0.111559
1684.000000	0.111586
1683.000000	0.111930
1682.000000	0.111878
1681.000000	0.111856
1680.000000	0.112241
1679.000000	0.112201
1678.000000	0.111751
1677.000000	0.111560
1676.000000	0.111505
1675.000000	0.111376
1674.000000	0.111532
1673.000000	0.111573
1672.000000	0.111435
1671.000000	0.111076
1670.000000	0.110327
1669.000000	0.110713
1668.000000	0.110742
1667.000000	0.110586
1666.000000	0.110708
1665.000000	0.111141
1664.000000	0.110725
1663.000000	0.110160
1662.000000	0.110637
1661.000000	0.110577
1660.000000	0.110559
1659.000000	0.110604
1658.000000	0.110504
1657.000000	0.110842
1656.000000	0.110911
1655.000000	0.110597
1654.000000	0.110596
1653.000000	0.110474
1652.000000	0.110506
1651.000000	0.110453
1650.000000	0.110273
1649.000000	0.110544
1648.000000	0.110485
1647.000000	0.110079
1646.000000	0.110134
1645.000000	0.110546
1644.000000	0.110368
1643.000000	0.110003
1642.000000	0.110450
1641.000000	0.110560
1640.000000	0.109955
1639.000000	0.109624
1638.000000	0.110097
1637.000000	0.110553
1636.000000	0.110601
1635.000000	0.110850
1634.000000	0.110786
1633.000000	0.110218
1632.000000	0.110158
1631.000000	0.110290
1630.000000	0.110148
1629.000000	0.110385
1628.000000	0.110186
1627.000000	0.110141
1626.000000	0.110343
1625.000000	0.110395
1624.000000	0.110270
1623.000000	0.110063
1622.000000	0.110189
1621.000000	0.110270
1620.000000	0.110237
1619.000000	0.110487
1618.000000	0.110957
1617.000000	0.110485
1616.000000	0.110092
1615.000000	0.110088
1614.000000	0.110000
1613.000000	0.110068
1612.000000	0.110120
1611.000000	0.110194
1610.000000	0.110231
1609.000000	0.110431
1608.000000	0.110572
1607.000000	0.110904
1606.000000	0.110709
1605.000000	0.110858
1604.000000	0.110674
1603.000000	0.110502
1602.000000	0.109658
1601.000000	0.110290
1600.000000	0.110494
1599.000000	0.110423
1598.000000	0.110313
1597.000000	0.110465
1596.000000	0.110194
1595.000000	0.110252
1594.000000	0.110228
1593.000000	0.110149
1592.000000	0.110078
1591.000000	0.110159
1590.000000	0.110252
1589.000000	0.110293
1588.000000	0.109983
1587.000000	0.109810
1586.000000	0.109991
1585.000000	0.110126
1584.000000	0.110122
1583.000000	0.109471
1582.000000	0.109875
1581.000000	0.110263
1580.000000	0.110035
1579.000000	0.109871
1578.000000	0.109835
1577.000000	0.110202
1576.000000	0.109548
1575.000000	0.109107
1574.000000	0.109472
1573.000000	0.109918
1572.000000	0.109782
1571.000000	0.109667
1570.000000	0.109718
1569.000000	0.110158
1568.000000	0.109848
1567.000000	0.109986
1566.000000	0.109942
1565.000000	0.109770
1564.000000	0.110209
1563.000000	0.110259
1562.000000	0.109518
1561.000000	0.109538
1560.000000	0.109742
1559.000000	0.109509
1558.000000	0.109455
1557.000000	0.110030
1556.000000	0.110417
1555.000000	0.109989
1554.000000	0.109491
1553.000000	0.109547
1552.000000	0.109892
1551.000000	0.110069
1550.000000	0.109602
1549.000000	0.109659
1548.000000	0.110069
1547.000000	0.109691
1546.000000	0.110001
1545.000000	0.109498
1544.000000	0.109481
1543.000000	0.109568
1542.000000	0.109828
1541.000000	0.109120
1540.000000	0.109563
1539.000000	0.109424
1538.000000	0.109738
1537.000000	0.110208
1536.000000	0.109469
1535.000000	0.108928
1534.000000	0.109611
1533.000000	0.109452
1532.000000	0.109756
1531.000000	0.109367
1530.000000	0.109386
1529.000000	0.109944
1528.000000	0.109473
1527.000000	0.108975
1526.000000	0.109054
1525.000000	0.109841
1524.000000	0.109298
1523.000000	0.109349
1522.000000	0.109762
1521.000000	0.109362
1520.000000	0.109369
1519.000000	0.109517
1518.000000	0.109091
1517.000000	0.109116
1516.000000	0.109317
1515.000000	0.109272
1514.000000	0.109290
1513.000000	0.109271
1512.000000	0.109556
1511.000000	0.108706
1510.000000	0.109195
1509.000000	0.109041
1508.000000	0.109271
1507.000000	0.108820
1506.000000	0.109363
1505.000000	0.109478
1504.000000	0.109297
1503.000000	0.108885
1502.000000	0.109037
1501.000000	0.109091
1500.000000	0.109388
1499.000000	0.109807
1498.000000	0.109653
1497.000000	0.109417
1496.000000	0.108920
1495.000000	0.109502
1494.000000	0.109138
1493.000000	0.109442
1492.000000	0.109541
1491.000000	0.109647
1490.000000	0.109162
1489.000000	0.109174
1488.000000	0.109278
1487.000000	0.109302
1486.000000	0.109715
1485.000000	0.109687
1484.000000	0.109186
1483.000000	0.109525
1482.000000	0.109445
1481.000000	0.109412
1480.000000	0.109096
1479.000000	0.108939
1478.000000	0.108861
1477.000000	0.108953
1476.000000	0.108751
1475.000000	0.108899
1474.000000	0.109207
1473.000000	0.108812
1472.000000	0.108325
1471.000000	0.108798
1470.000000	0.108758
1469.000000	0.108787
1468.000000	0.108562
1467.000000	0.108573
1466.000000	0.108436
1465.000000	0.108543
1464.000000	0.108652
1463.000000	0.108300
1462.000000	0.108050
1461.000000	0.108214
1460.000000	0.108168
1459.000000	0.108393
1458.000000	0.108071
1457.000000	0.108247
1456.000000	0.108611
1455.000000	0.108355
1454.000000	0.108734
1453.000000	0.108992
1452.000000	0.108834
1451.000000	0.108910
1450.000000	0.108584
1449.000000	0.108516
1448.000000	0.108604
1447.000000	0.108580
1446.000000	0.108400
1445.000000	0.108601
1444.000000	0.108337
1443.000000	0.108329
1442.000000	0.108263
1441.000000	0.108429
1440.000000	0.108405
1439.000000	0.108430
1438.000000	0.108610
1437.000000	0.108302
1436.000000	0.107937
1435.000000	0.108188
1434.000000	0.108159
1433.000000	0.108158
1432.000000	0.107894
1431.000000	0.108030
1430.000000	0.107901
1429.000000	0.107901
1428.000000	0.107934
1427.000000	0.108325
1426.000000	0.108369
1425.000000	0.108242
1424.000000	0.107839
1423.000000	0.107983
1422.000000	0.107991
1421.000000	0.107949
1420.000000	0.108278
1419.000000	0.108377
1418.000000	0.108339
1417.000000	0.108273
1416.000000	0.108194
1415.000000	0.107971
1414.000000	0.108147
1413.000000	0.108461
1412.000000	0.108014
1411.000000	0.107751
1410.000000	0.108123
1409.000000	0.107953
1408.000000	0.107693
1407.000000	0.107603
1406.000000	0.107650
1405.000000	0.107476
1404.000000	0.107332
1403.000000	0.107535
1402.000000	0.107184
1401.000000	0.107319
1400.000000	0.107387
1399.000000	0.106915
1398.000000	0.106797
1397.000000	0.106897
1396.000000	0.106898
1395.000000	0.106776
1394.000000	0.106648
1393.000000	0.106701
1392.000000	0.106816
1391.000000	0.106722
1390.000000	0.106653
1389.000000	0.106585
1388.000000	0.106699
1387.000000	0.106796
1386.000000	0.106447
1385.000000	0.106649
1384.000000	0.106810
1383.000000	0.106641
1382.000000	0.106508
1381.000000	0.106446
1380.000000	0.106197
1379.000000	0.106062
1378.000000	0.106002
1377.000000	0.106000
1376.000000	0.106138
1375.000000	0.106319
1374.000000	0.105898
1373.000000	0.105915
1372.000000	0.105832
1371.000000	0.105802
1370.000000	0.105878
1369.000000	0.105657
1368.000000	0.106029
1367.000000	0.106191
1366.000000	0.106014
1365.000000	0.106148
1364.000000	0.105912
1363.000000	0.106019
1362.000000	0.105173
1361.000000	0.104392
1360.000000	0.104465
1359.000000	0.104316
1358.000000	0.104049
1357.000000	0.103701
1356.000000	0.103745
1355.000000	0.103516
1354.000000	0.104225
1353.000000	0.103552
1352.000000	0.103472
1351.000000	0.103574
1350.000000	0.103333
1349.000000	0.103460
1348.000000	0.103860
1347.000000	0.104056
1346.000000	0.104139
1345.000000	0.104404
1344.000000	0.104658
1343.000000	0.105307
1342.000000	0.105394
1341.000000	0.105462
1340.000000	0.105647
1339.000000	0.105810
1338.000000	0.106210
1337.000000	0.106240
1336.000000	0.106263
1335.000000	0.106393
1334.000000	0.106623
1333.000000	0.106837
1332.000000	0.106723
1331.000000	0.106739
1330.000000	0.106709
1329.000000	0.106699
1328.000000	0.106828
1327.000000	0.106862
1326.000000	0.106979
1325.000000	0.107075
1324.000000	0.106758
1323.000000	0.106415
1322.000000	0.106647
1321.000000	0.106583
1320.000000	0.106703
1319.000000	0.106440
1318.000000	0.106693
1317.000000	0.106574
1316.000000	0.106716
1315.000000	0.106693
1314.000000	0.106457
1313.000000	0.106444
1312.000000	0.106714
1311.000000	0.106380
1310.000000	0.106251
1309.000000	0.106059
1308.000000	0.106250
1307.000000	0.106228
1306.000000	0.106459
1305.000000	0.106445
1304.000000	0.106179
1303.000000	0.106291
1302.000000	0.106347
1301.000000	0.106199
1300.000000	0.106291
1299.000000	0.106465
1298.000000	0.106152
1297.000000	0.106566
1296.000000	0.106276
1295.000000	0.106499
1294.000000	0.106668
1293.000000	0.106476
1292.000000	0.106577
1291.000000	0.106724
1290.000000	0.106343
1289.000000	0.106245
1288.000000	0.106359
1287.000000	0.106415
1286.000000	0.106406
1285.000000	0.106432
1284.000000	0.106574
1283.000000	0.106366
1282.000000	0.106252
1281.000000	0.106579
1280.000000	0.106932
1279.000000	0.106243
1278.000000	0.106173
1277.000000	0.106414
1276.000000	0.106230
1275.000000	0.106141
1274.000000	0.105960
1273.000000	0.106272
1272.000000	0.106183
1271.000000	0.105789
1270.000000	0.105753
1269.000000	0.106061
1268.000000	0.106005
1267.000000	0.105706
1266.000000	0.105294
1265.000000	0.105523
1264.000000	0.105512
1263.000000	0.105690
1262.000000	0.105666
1261.000000	0.105689
1260.000000	0.105212
1259.000000	0.105547
1258.000000	0.105604
1257.000000	0.105171
1256.000000	0.105165
1255.000000	0.105424
1254.000000	0.105491
1253.000000	0.105088
1252.000000	0.105372
1251.000000	0.105763
1250.000000	0.105689
1249.000000	0.105601
1248.000000	0.105168
1247.000000	0.105531
1246.000000	0.105707
1245.000000	0.105288
1244.000000	0.105645
1243.000000	0.105424
1242.000000	0.105425
1241.000000	0.105424
1240.000000	0.105562
1239.000000	0.105182
1238.000000	0.104763
1237.000000	0.105082
1236.000000	0.105198
1235.000000	0.105118
1234.000000	0.105238
1233.000000	0.104881
1232.000000	0.105011
1231.000000	0.104699
1230.000000	0.104711
1229.000000	0.104941
1228.000000	0.104911
1227.000000	0.104610
1226.000000	0.104195
1225.000000	0.104532
1224.000000	0.104374
1223.000000	0.104492
1222.000000	0.104204
1221.000000	0.104438
1220.000000	0.104202
1219.000000	0.104369
1218.000000	0.104573
1217.000000	0.104467
1216.000000	0.104564
1215.000000	0.104517
1214.000000	0.104136
1213.000000	0.104138
1212.000000	0.104248
1211.000000	0.104379
1210.000000	0.104628
1209.000000	0.104825
1208.000000	0.104686
1207.000000	0.104719
1206.000000	0.104527
1205.000000	0.104459
1204.000000	0.104210
1203.000000	0.104289
1202.000000	0.104421
1201.000000	0.104340
1200.000000	0.104526
1199.000000	0.104432
1198.000000	0.104592
1197.000000	0.104036
1196.000000	0.103985
1195.000000	0.103843
1194.000000	0.103591
1193.000000	0.103918
1192.000000	0.103520
1191.000000	0.098243
1190.000000	0.089956
1189.000000	0.090107
1188.000000	0.090005
1187.000000	0.090068
1186.000000	0.089819
1185.000000	0.089633
1184.000000	0.089653
1183.000000	0.089567
1182.000000	0.089644
1181.000000	0.089487
1180.000000	0.089514
1179.000000	0.089744
1178.000000	0.089470
1177.000000	0.089367
1176.000000	0.089465
1175.000000	0.089455
1174.000000	0.089441
1173.000000	0.089256
1172.000000	0.089361
1171.000000	0.089575
1170.000000	0.089637
1169.000000	0.089463
1168.000000	0.089255
1167.000000	0.089336
1166.000000	0.089074
1165.000000	0.088983
1164.000000	0.089280
1163.000000	0.089192
1162.000000	0.089121
1161.000000	0.089028
1160.000000	0.088869
1159.000000	0.088711
1158.000000	0.088523
1157.000000	0.088548
1156.000000	0.088505
1155.000000	0.088725
1154.000000	0.088672
1153.000000	0.088543
1152.000000	0.088375
1151.000000	0.088482
1150.000000	0.088580
1149.000000	0.088397
1148.000000	0.088410
1147.000000	0.088157
1146.000000	0.088240
1145.000000	0.088292
1144.000000	0.087974
1143.000000	0.087906
1142.000000	0.088047
1141.000000	0.088306
1140.000000	0.088107
1139.000000	0.087939
1138.000000	0.087890
1137.000000	0.087844
1136.000000	0.087716
1135.000000	0.087565
1134.000000	0.087634
1133.000000	0.087512
1132.000000	0.087665
1131.000000	0.087657
1130.000000	0.087353
1129.000000	0.087337
1128.000000	0.087319
1127.000000	0.087313
1126.000000	0.086856
1125.000000	0.086612
1124.000000	0.086672
1123.000000	0.086925
1122.000000	0.086764
1121.000000	0.086492
1120.000000	0.086750
1119.000000	0.086582
1118.000000	0.086417
1117.000000	0.086154
1116.000000	0.086025
1115.000000	0.086119
1114.000000	0.086198
1113.000000	0.086445
1112.000000	0.086267
1111.000000	0.086035
1110.000000	0.086055
1109.000000	0.086040
1108.000000	0.086131
1107.000000	0.086217
1106.000000	0.086196
1105.000000	0.086072
1104.000000	0.086244
1103.000000	0.086047
1102.000000	0.086331
1101.000000	0.086187
1100.000000	0.085931
1099.000000	0.085754
1098.000000	0.085929
1097.000000	0.085653
1096.000000	0.085347
1095.000000	0.085700
1094.000000	0.085373
1093.000000	0.085947
1092.000000	0.086056
1091.000000	0.085579
1090.000000	0.085118
1089.000000	0.085249
1088.000000	0.084973
1087.000000	0.085302
1086.000000	0.085465
1085.000000	0.085196
1084.000000	0.085323
1083.000000	0.085436
1082.000000	0.084667
1081.000000	0.084772
1080.000000	0.084555
1079.000000	0.084324
1078.000000	0.084672
1077.000000	0.084842
1076.000000	0.084066
1075.000000	0.084149
1074.000000	0.084448
1073.000000	0.084266
1072.000000	0.084547
1071.000000	0.083671
1070.000000	0.084144
1069.000000	0.083730
1068.000000	0.083978
1067.000000	0.083441
1066.000000	0.083680
1065.000000	0.084118
1064.000000	0.083446
1063.000000	0.083229
1062.000000	0.082842
1061.000000	0.083324
1060.000000	0.083083
1059.000000	0.083269
1058.000000	0.083176
1057.000000	0.082913
1056.000000	0.082375
1055.000000	0.083134
1054.000000	0.082298
1053.000000	0.082386
1052.000000	0.082065
1051.000000	0.082855
1050.000000	0.082437
1049.000000	0.082732
1048.000000	0.082244
1047.000000	0.081285
1046.000000	0.081321
1045.000000	0.081429
1044.000000	0.081915
1043.000000	0.081179
1042.000000	0.081386
1041.000000	0.080902
1040.000000	0.080870
1039.000000	0.080711
1038.000000	0.080743
1037.000000	0.080812
1036.000000	0.081231
1035.000000	0.080634
1034.000000	0.080753
1033.000000	0.079805
1032.000000	0.079672
1031.000000	0.080676
1030.000000	0.080047
1029.000000	0.080055
1028.000000	0.080088
1027.000000	0.079355
1026.000000	0.079544
1025.000000	0.079346
1024.000000	0.079699
1023.000000	0.078940
1022.000000	0.079719
1021.000000	0.079347
1020.000000	0.078733
1019.000000	0.078549
1018.000000	0.079524
1017.000000	0.077945
1016.000000	0.078421
1015.000000	0.078152
1014.000000	0.078628
1013.000000	0.077444
1012.000000	0.077926
1011.000000	0.077793
1010.000000	0.077745
1009.000000	0.077018
1008.000000	0.078068
1007.000000	0.078003
1006.000000	0.077507
1005.000000	0.076409
1004.000000	0.076435
1003.000000	0.076646
1002.000000	0.077316
1001.000000	0.076583
1000.000000	0.076221
999.000000	0.075682
998.000000	0.075410
997.000000	0.076839
996.000000	0.075367
995.000000	0.075293
994.000000	0.075831
993.000000	0.074895
992.000000	0.074285
991.000000	0.074711
990.000000	0.075417
989.000000	0.075199
988.000000	0.074994
987.000000	0.074667
986.000000	0.074347
985.000000	0.073887
984.000000	0.073750
983.000000	0.073101
982.000000	0.072855
981.000000	0.072635
980.000000	0.073285
979.000000	0.073082
978.000000	0.072242
977.000000	0.071346
976.000000	0.072127
975.000000	0.072031
974.000000	0.071904
973.000000	0.072088
972.000000	0.071285
971.000000	0.070170
970.000000	0.071044
969.000000	0.071188
968.000000	0.070257
967.000000	0.071047
966.000000	0.069808
965.000000	0.070078
964.000000	0.070527
963.000000	0.069750
962.000000	0.069805
961.000000	0.069364
960.000000	0.068486
959.000000	0.068356
958.000000	0.068538
957.000000	0.068863
956.000000	0.068501
955.000000	0.067509
954.000000	0.066700
953.000000	0.066105
952.000000	0.066112
951.000000	0.066238
950.000000	0.066116
949.000000	0.066223
948.000000	0.065933
947.000000	0.065474
946.000000	0.065463
945.000000	0.063813
944.000000	0.062577
943.000000	0.063804
942.000000	0.065513
941.000000	0.065273
940.000000	0.063972
939.000000	0.063144
938.000000	0.063048
937.000000	0.061927
936.000000	0.061754
935.000000	0.061470
934.000000	0.060944
933.000000	0.061334
932.000000	0.060628
931.000000	0.060621
930.000000	0.059908
929.000000	0.061138
928.000000	0.061641
927.000000	0.059216
926.000000	0.058416
925.000000	0.058272
924.000000	0.058871
923.000000	0.059030
922.000000	0.058296
921.000000	0.056587
920.000000	0.056553
919.000000	0.055708
918.000000	0.056005
917.000000	0.056650
916.000000	0.053997
915.000000	0.053097
914.000000	0.054242
913.000000	0.055877
912.000000	0.055732
911.000000	0.054936
910.000000	0.054915
909.000000	0.053959
908.000000	0.050049
907.000000	0.049774
906.000000	0.053104
905.000000	0.050807
904.000000	0.049467
903.000000	0.053357
902.000000	0.052581
901.000000	0.050242
900.000000	0.048900
899.000000	0.050092
898.000000	0.050177
897.000000	0.048118
896.000000	0.046787
895.000000	0.047785
894.000000	0.048095
893.000000	0.046519
892.000000	0.045606
891.000000	0.043458
890.000000	0.043759
889.000000	0.042978
888.000000	0.042955
887.000000	0.039254
886.000000	0.042782
885.000000	0.044050
884.000000	0.043635
883.000000	0.046082
882.000000	0.040588
881.000000	0.037003
880.000000	0.038128
879.000000	0.040287
878.000000	0.038125
877.000000	0.036571
876.000000	0.042539
875.000000	0.039353
874.000000	0.041571
873.000000	0.038177
872.000000	0.032890
871.000000	0.032431
870.000000	0.032465
869.000000	0.037701
868.000000	0.034265
867.000000	0.036236
866.000000	0.033247
865.000000	0.031539
864.000000	0.024734
863.000000	0.030730
862.000000	0.033600
861.000000	0.059973
860.000000	0.069077
859.000000	0.063139
858.000000	0.061112
857.000000	0.058637
856.000000	0.056274
855.000000	0.059987
854.000000	0.060337
853.000000	0.058720
852.000000	0.059113
851.000000	0.056244
850.000000	0.056344
849.000000	0.054089
848.000000	0.053899
847.000000	0.054984
846.000000	0.055494
845.000000	0.055305
844.000000	0.054417
843.000000	0.052622
842.000000	0.054159
841.000000	0.054875
840.000000	0.054432
839.000000	0.054954
838.000000	0.054885
837.000000	0.053754
836.000000	0.054479
835.000000	0.054277
834.000000	0.053864
833.000000	0.054114
832.000000	0.053354
831.000000	0.054196
830.000000	0.053564
829.000000	0.054470
828.000000	0.054220
827.000000	0.054509
826.000000	0.054880
825.000000	0.054776
824.000000	0.053651
823.000000	0.052171
822.000000	0.054020
821.000000	0.054991
820.000000	0.054817
819.000000	0.054269
818.000000	0.056597
817.000000	0.056259
816.000000	0.054809
815.000000	0.055451
814.000000	0.055906
813.000000	0.056444
812.000000	0.055932
811.000000	0.056996
810.000000	0.072320
809.000000	0.074398
808.000000	0.073779
807.000000	0.074118
806.000000	0.073358
805.000000	0.073745
804.000000	0.074554
803.000000	0.074393
802.000000	0.074418
801.000000	0.075192
800.000000	0.075165
799.000000	0.075969
798.000000	0.075400
797.000000	0.075512
796.000000	0.076939
795.000000	0.076579
794.000000	0.076829
793.000000	0.076844
792.000000	0.077435
791.000000	0.076614
790.000000	0.077758
789.000000	0.077662
788.000000	0.077301
787.000000	0.077829
786.000000	0.078710
785.000000	0.078505
784.000000	0.078132
783.000000	0.079576
782.000000	0.079959
781.000000	0.079965
780.000000	0.079242
779.000000	0.079693
778.000000	0.080449
777.000000	0.080472
776.000000	0.081368
775.000000	0.081123
774.000000	0.082043
773.000000	0.082160
772.000000	0.081736
771.000000	0.082194
770.000000	0.081393
769.000000	0.082345
768.000000	0.082809
767.000000	0.083105
766.000000	0.083093
765.000000	0.083563
764.000000	0.082679
763.000000	0.083722
762.000000	0.083740
761.000000	0.084101
760.000000	0.084328
759.000000	0.084264
758.000000	0.083876
757.000000	0.085576
756.000000	0.085657
755.000000	0.085696
754.000000	0.085900
753.000000	0.085320
752.000000	0.085209
751.000000	0.085339
750.000000	0.086038
749.000000	0.085859
748.000000	0.086045
747.000000	0.086761
746.000000	0.087715
745.000000	0.087968
744.000000	0.087119
743.000000	0.087590
742.000000	0.088346
741.000000	0.087672
740.000000	0.088107
739.000000	0.088828
738.000000	0.088286
737.000000	0.088816
736.000000	0.089031
735.000000	0.089128
734.000000	0.088701
733.000000	0.088879
732.000000	0.088831
731.000000	0.088981
730.000000	0.089456
729.000000	0.090319
728.000000	0.089555
727.000000	0.089736
726.000000	0.090040
725.000000	0.090540
724.000000	0.090244
723.000000	0.090288
722.000000	0.090646
721.000000	0.090789
720.000000	0.090530
719.000000	0.090501
718.000000	0.090351
717.000000	0.090723
716.000000	0.091143
715.000000	0.091291
714.000000	0.091331
713.000000	0.091596
712.000000	0.091601
711.000000	0.091629
710.000000	0.091930
709.000000	0.091705
708.000000	0.091444
707.000000	0.092144
706.000000	0.091757
705.000000	0.092378
704.000000	0.092101
703.000000	0.091994
702.000000	0.092282
701.000000	0.092508
700.000000	0.092635
699.000000	0.092616
698.000000	0.092417
697.000000	0.092790
696.000000	0.093011
695.000000	0.092874
694.000000	0.092889
693.000000	0.093464
692.000000	0.093534
691.000000	0.094622
690.000000	0.097308
689.000000	0.096940
688.000000	0.097333
687.000000	0.097356
686.000000	0.097456
685.000000	0.097422
684.000000	0.097490
683.000000	0.097522
682.000000	0.097376
681.000000	0.097545
680.000000	0.097697
679.000000	0.097902
678.000000	0.098086
677.000000	0.098139
676.000000	0.097920
675.000000	0.097908
674.000000	0.098173
673.000000	0.098174
672.000000	0.098067
671.000000	0.097924
670.000000	0.097923
669.000000	0.098269
668.000000	0.098607
667.000000	0.098589
666.000000	0.098456
665.000000	0.098629
664.000000	0.099149
663.000000	0.098924
662.000000	0.098323
661.000000	0.098384
660.000000	0.098392
659.000000	0.098585
658.000000	0.098958
657.000000	0.098935
656.000000	0.098920
655.000000	0.098977
654.000000	0.098898
653.000000	0.098967
652.000000	0.099042
651.000000	0.099055
650.000000	0.099020
649.000000	0.099008
648.000000	0.098945
647.000000	0.099053
646.000000	0.099107
645.000000	0.099194
644.000000	0.099287
643.000000	0.099026
642.000000	0.098945
641.000000	0.099266
640.000000	0.099536
639.000000	0.099383
638.000000	0.099096
637.000000	0.099258
636.000000	0.099540
635.000000	0.099424
634.000000	0.099347
633.000000	0.099511
632.000000	0.099385
631.000000	0.099396
630.000000	0.099560
629.000000	0.099359
628.000000	0.099242
627.000000	0.099250
626.000000	0.099572
625.000000	0.099618
624.000000	0.099540
623.000000	0.099822
622.000000	0.099833
621.000000	0.099410
620.000000	0.099543
619.000000	0.099748
618.000000	0.099592
617.000000	0.099882
616.000000	0.099857
615.000000	0.099566
614.000000	0.099661
613.000000	0.099749
612.000000	0.099803
611.000000	0.099821
610.000000	0.099681
609.000000	0.099728
608.000000	0.099795
607.000000	0.099869
606.000000	0.099680
605.000000	0.099668
604.000000	0.099704
603.000000	0.099799
602.000000	0.099861
601.000000	0.099927
600.000000	0.099957
599.000000	0.099853
598.000000	0.099998
597.000000	0.099922
596.000000	0.099834
595.000000	0.099813
594.000000	0.099867
593.000000	0.100025
592.000000	0.099856
591.000000	0.099750
590.000000	0.099600
589.000000	0.099542
588.000000	0.099781
587.000000	0.099460
586.000000	0.099626
585.000000	0.099411
584.000000	0.099518
583.000000	0.099377
582.000000	0.099346
581.000000	0.099167
580.000000	0.099692
579.000000	0.099464
578.000000	0.099229
577.000000	0.098984
576.000000	0.098866
575.000000	0.099086
574.000000	0.098686
573.000000	0.098547
572.000000	0.098562
571.000000	0.098477
570.000000	0.098487
569.000000	0.098373
568.000000	0.098140
567.000000	0.098096
566.000000	0.098240
565.000000	0.097968
564.000000	0.097605
563.000000	0.097585
562.000000	0.089376
561.000000	0.087429
560.000000	0.086805
559.000000	0.086532
558.000000	0.086107
557.000000	0.085991
556.000000	0.085454
555.000000	0.085104
554.000000	0.084686
553.000000	0.084069
552.000000	0.083588
551.000000	0.082755
550.000000	0.082103
549.000000	0.081630
548.000000	0.081010
547.000000	0.079842
546.000000	0.079037
545.000000	0.078253
544.000000	0.077388
543.000000	0.076705
542.000000	0.075857
541.000000	0.074852
540.000000	0.073475
539.000000	0.072798
538.000000	0.071847
537.000000	0.070896
536.000000	0.069493
535.000000	0.068608
534.000000	0.067684
533.000000	0.066663
532.000000	0.066203
531.000000	0.065482
530.000000	0.064942
529.000000	0.064720
528.000000	0.064440
527.000000	0.064009
526.000000	0.064361
525.000000	0.064825
524.000000	0.065401
523.000000	0.066409
522.000000	0.067682
521.000000	0.068972
520.000000	0.070796
519.000000	0.072632
518.000000	0.075025
517.000000	0.077377
516.000000	0.080254
515.000000	0.082892
514.000000	0.085791
513.000000	0.088521
512.000000	0.091316
511.000000	0.093775
510.000000	0.096453
509.000000	0.098317
508.000000	0.100121
507.000000	0.102199
506.000000	0.102776
505.000000	0.104518
504.000000	0.105149
503.000000	0.105621
502.000000	0.105688
501.000000	0.106078
500.000000	0.106187
499.000000	0.106612
498.000000	0.106440
497.000000	0.106150
496.000000	0.106217
495.000000	0.105705
494.000000	0.104988
493.000000	0.103988
492.000000	0.103088
491.000000	0.101487
490.000000	0.100292
489.000000	0.098158
488.000000	0.095620
487.000000	0.092390
486.000000	0.089204
485.000000	0.085675
484.000000	0.081579
483.000000	0.077419
482.000000	0.074242
481.000000	0.072473
480.000000	0.071731
479.000000	0.071810
478.000000	0.072556
477.000000	0.073020
476.000000	0.073907
475.000000	0.075161
474.000000	0.076549
473.000000	0.078061
472.000000	0.079607
471.000000	0.081409
470.000000	0.083607
469.000000	0.084919
468.000000	0.086423
467.000000	0.088010
466.000000	0.089242
465.000000	0.090053
464.000000	0.091144
463.000000	0.091562
462.000000	0.091902
461.000000	0.092194
460.000000	0.092593
459.000000	0.092441
458.000000	0.092714
457.000000	0.092802
456.000000	0.092572
455.000000	0.092579
454.000000	0.092507
453.000000	0.092348
452.000000	0.092333
451.000000	0.092571
450.000000	0.092348
449.000000	0.092373
448.000000	0.091747
447.000000	0.092059
446.000000	0.091964
445.000000	0.091661
444.000000	0.091073
443.000000	0.090603
442.000000	0.090473
441.000000	0.090499
440.000000	0.090490
439.000000	0.090126
438.000000	0.090627
437.000000	0.090670
436.000000	0.090804
435.000000	0.090818
434.000000	0.090294
433.000000	0.090532
432.000000	0.090752
431.000000	0.090861
430.000000	0.091147
429.000000	0.091162
428.000000	0.091033
427.000000	0.091023
426.000000	0.090907
425.000000	0.090918
424.000000	0.090851
423.000000	0.091055
422.000000	0.090925
421.000000	0.090824
420.000000	0.090801
419.000000	0.090958
418.000000	0.091125
417.000000	0.091057
416.000000	0.091160
415.000000	0.091138
414.000000	0.091111
413.000000	0.091248
412.000000	0.091418
411.000000	0.091306
410.000000	0.091066
409.000000	0.091504
408.000000	0.091491
407.000000	0.091365
406.000000	0.091495
405.000000	0.091194
404.000000	0.091054
403.000000	0.090979
402.000000	0.090814
401.000000	0.091042
400.000000	0.090950
399.000000	0.090965
398.000000	0.091287
397.000000	0.091509
396.000000	0.091386
395.000000	0.090726
394.000000	0.090684
393.000000	0.090885
392.000000	0.090686
391.000000	0.090710
390.000000	0.091205
389.000000	0.091394
388.000000	0.090898
387.000000	0.090703
386.000000	0.091012
385.000000	0.091249
384.000000	0.090821
383.000000	0.090395
382.000000	0.090566
381.000000	0.090989
380.000000	0.090874
379.000000	0.094033
378.000000	0.095568
377.000000	0.094892
376.000000	0.094867
375.000000	0.095273
374.000000	0.096378
373.000000	0.097462
372.000000	0.098139
371.000000	0.098560
370.000000	0.099249
369.000000	0.099721
368.000000	0.099832
367.000000	0.100150
366.000000	0.100853
365.000000	0.101333
364.000000	0.101671
363.000000	0.102159
362.000000	0.102790
361.000000	0.103013
360.000000	0.103859
359.000000	0.104315
358.000000	0.104274
357.000000	0.104821
356.000000	0.105271
355.000000	0.105385
354.000000	0.105581
353.000000	0.105926
352.000000	0.106550
351.000000	0.106925
350.000000	0.107896
349.000000	0.108530
348.000000	0.108714
347.000000	0.108830
346.000000	0.109659
345.000000	0.110152
344.000000	0.110085
343.000000	0.109224
342.000000	0.110020
341.000000	0.110648
340.000000	0.110384
339.000000	0.110509
338.000000	0.110039
337.000000	0.110373
336.000000	0.110040
335.000000	0.109796
334.000000	0.109795
333.000000	0.110102
332.000000	0.108917
331.000000	0.108639
330.000000	0.108760
329.000000	0.108274
328.000000	0.108187
327.000000	0.108560
326.000000	0.108800
325.000000	0.108336
324.000000	0.107330
323.000000	0.107228
322.000000	0.107361
321.000000	0.107934
320.000000	0.108521
319.000000	0.119856
318.000000	0.123512
317.000000	0.124509
316.000000	0.125057
315.000000	0.125093
314.000000	0.124780
313.000000	0.125524
312.000000	0.126393
311.000000	0.126550
310.000000	0.126511
309.000000	0.127038
308.000000	0.127601
307.000000	0.126820
306.000000	0.126578
305.000000	0.126641
304.000000	0.126277
303.000000	0.125555
302.000000	0.125805
301.000000	0.125315
300.000000	0.123923
299.000000	0.123949
298.000000	0.123614
297.000000	0.123311
296.000000	0.123559
295.000000	0.123149
294.000000	0.122315
293.000000	0.121767
292.000000	0.122079
291.000000	0.121787
290.000000	0.121066
289.000000	0.120208
288.000000	0.120552
287.000000	0.120922
286.000000	0.120663
285.000000	0.120768
284.000000	0.120628
283.000000	0.119682
282.000000	0.120224
281.000000	0.120512
280.000000	0.120322
279.000000	0.120854
278.000000	0.121878
277.000000	0.121689
276.000000	0.122086
275.000000	0.122216
274.000000	0.122864
273.000000	0.122812
272.000000	0.123437
271.000000	0.124150
270.000000	0.124637
269.000000	0.125126
268.000000	0.125147
267.000000	0.125722
266.000000	0.126654
265.000000	0.126158
264.000000	0.126391
263.000000	0.125951
262.000000	0.126676
261.000000	0.126929
260.000000	0.126535
259.000000	0.125774
258.000000	0.125855
257.000000	0.124660
256.000000	0.124298
255.000000	0.123792
254.000000	0.122540
253.000000	0.122671
252.000000	0.121871
251.000000	0.121912
250.000000	0.121319
249.000000	0.120379
248.000000	0.119282
247.000000	0.118992
246.000000	0.119025
245.000000	0.118930
244.000000	0.117434
243.000000	0.117770
242.000000	0.116869
241.000000	0.116912
240.000000	0.116134
239.000000	0.114968
238.000000	0.115304
237.000000	0.113702
236.000000	0.113144
235.000000	0.112680
234.000000	0.112276
233.000000	0.110794
232.000000	0.109891
231.000000	0.108635
230.000000	0.107997
229.000000	0.105991
228.000000	0.105325
227.000000	0.103556
226.000000	0.103128
225.000000	0.101173
224.000000	0.099485
223.000000	0.098423
222.000000	0.095986
221.000000	0.095227
220.000000	0.093618
219.000000	0.093058
218.000000	0.091905
217.000000	0.091003
216.000000	0.089663
215.000000	0.087690
214.000000	0.086430
213.000000	0.084563
212.000000	0.083180
211.000000	0.081135
210.000000	0.078593
209.000000	0.075841
208.000000	0.072869
207.000000	0.069941
206.000000	0.065997
205.000000	0.062717
204.000000	0.059513
203.000000	0.054491
202.000000	0.050984
201.000000	0.047673
200.000000	0.044313
199.000000	0.042367
198.000000	0.038942
197.000000	0.035236
196.000000	0.031891
195.000000	0.031017
194.000000	0.028750
193.000000	0.028354
192.000000	0.025812
191.000000	0.024024
190.000000	0.035400
189.000000	0.040690
188.000000	0.038838
187.000000	0.013521
186.000000	0.002228
185.000000	0.009580
184.000000	-0.000132
183.000000	-0.011736
182.000000	-0.007722
181.000000	0.006231
180.000000	0.007340
179.000000	0.012388
178.000000	0.008513
177.000000	0.003014
176.000000	0.004543
175.000000	-0.021463
