PE UV       SUBTECH     SPECTRUM    ASCII       PEDS        4.00        
   -1
Sample7.Sample.Raw.ASC
25/05/30
12:20:53.00
25/06/06
09:00:45.00
tom jordan
CISRO R3
175.000000
1
Lambda 1050
1050L1807051
PerkinElmer UV WinLab 6.4.0.973 / 2.02.06 Lambda 900 UV/VIS/NIR, Jan 28 2016 16:58:34

0
0
3350
0
0
UV/VIS
1
1
1
RBeamAtt,SBeamAtt,150mm sphere / downward view, WB InGaAs Detector
0
0
0
0
Program
Program
3350
3350
3350
0
1
 
 
 
0
 
860.8
319.2
860.8
Front
100
 
S:100 R:100
0
0
0
0
 
0
 
 
 
0
 
 
0
0
0
0
0
 
 
 
 
0
0


0
0
#HDR
-1
-1
#GR
nm
%T
1.0
0.0
2000.000000
-1.000000
1826
8
102.611019
6.267683
#DATA
2000.000000	12.182769
1999.000000	12.325456
1998.000000	11.955892
1997.000000	12.153798
1996.000000	12.088934
1995.000000	11.676643
1994.000000	11.883216
1993.000000	12.210262
1992.000000	11.954213
1991.000000	11.832023
1990.000000	12.092302
1989.000000	11.960766
1988.000000	11.894385
1987.000000	11.835374
1986.000000	11.676509
1985.000000	11.703399
1984.000000	12.098820
1983.000000	12.172702
1982.000000	11.951378
1981.000000	11.956636
1980.000000	11.629178
1979.000000	11.891702
1978.000000	11.701378
1977.000000	11.871292
1976.000000	11.972146
1975.000000	12.214565
1974.000000	11.999523
1973.000000	11.778311
1972.000000	11.680650
1971.000000	11.727758
1970.000000	11.608577
1969.000000	11.750193
1968.000000	11.841453
1967.000000	11.613497
1966.000000	11.707684
1965.000000	11.492328
1964.000000	11.898686
1963.000000	11.767494
1962.000000	11.805653
1961.000000	11.486957
1960.000000	11.404914
1959.000000	11.697445
1958.000000	12.029124
1957.000000	12.151279
1956.000000	11.867548
1955.000000	11.731161
1954.000000	11.303371
1953.000000	11.584546
1952.000000	11.346633
1951.000000	11.506255
1950.000000	12.072383
1949.000000	12.078639
1948.000000	11.693324
1947.000000	11.864980
1946.000000	12.010608
1945.000000	11.596876
1944.000000	11.663019
1943.000000	11.714399
1942.000000	11.671159
1941.000000	11.777633
1940.000000	12.021316
1939.000000	11.782813
1938.000000	11.771939
1937.000000	11.591883
1936.000000	12.041900
1935.000000	12.155953
1934.000000	11.790250
1933.000000	11.684443
1932.000000	12.030620
1931.000000	12.196466
1930.000000	12.066880
1929.000000	11.934796
1928.000000	11.462517
1927.000000	11.764704
1926.000000	11.784523
1925.000000	11.903317
1924.000000	11.828591
1923.000000	11.553485
1922.000000	11.538809
1921.000000	11.476224
1920.000000	11.782922
1919.000000	11.742944
1918.000000	11.949232
1917.000000	11.661059
1916.000000	11.529965
1915.000000	11.941338
1914.000000	12.169059
1913.000000	11.929383
1912.000000	11.846853
1911.000000	11.892277
1910.000000	12.087626
1909.000000	11.876569
1908.000000	11.507421
1907.000000	11.781864
1906.000000	11.881848
1905.000000	12.214480
1904.000000	12.012295
1903.000000	11.919691
1902.000000	11.860473
1901.000000	11.852173
1900.000000	11.981384
1899.000000	11.954296
1898.000000	11.933917
1897.000000	11.923479
1896.000000	11.756255
1895.000000	11.813892
1894.000000	11.832432
1893.000000	11.702941
1892.000000	11.926939
1891.000000	12.006433
1890.000000	12.081170
1889.000000	12.066463
1888.000000	11.936610
1887.000000	11.850591
1886.000000	11.839027
1885.000000	11.766980
1884.000000	11.878675
1883.000000	12.070604
1882.000000	12.212287
1881.000000	12.213749
1880.000000	12.072021
1879.000000	11.955122
1878.000000	11.869106
1877.000000	11.943318
1876.000000	11.966413
1875.000000	12.047141
1874.000000	12.077360
1873.000000	12.286070
1872.000000	12.227256
1871.000000	12.036771
1870.000000	11.921283
1869.000000	11.959279
1868.000000	11.970795
1867.000000	11.976778
1866.000000	12.128721
1865.000000	12.027213
1864.000000	12.103333
1863.000000	12.081949
1862.000000	12.146188
1861.000000	12.193237
1860.000000	11.948132
1859.000000	11.826684
1858.000000	11.932927
1857.000000	11.875858
1856.000000	11.828945
1855.000000	11.939909
1854.000000	11.986048
1853.000000	11.946976
1852.000000	11.852146
1851.000000	11.824370
1850.000000	11.881657
1849.000000	11.948764
1848.000000	11.913600
1847.000000	11.986103
1846.000000	11.980833
1845.000000	11.995545
1844.000000	11.922875
1843.000000	11.789028
1842.000000	11.803342
1841.000000	11.706929
1840.000000	11.859954
1839.000000	12.069131
1838.000000	12.189840
1837.000000	12.110470
1836.000000	11.840990
1835.000000	11.781918
1834.000000	11.818762
1833.000000	11.773349
1832.000000	11.833576
1831.000000	11.808235
1830.000000	11.838972
1829.000000	11.867029
1828.000000	11.792313
1827.000000	11.835075
1826.000000	11.805952
1825.000000	11.707738
1824.000000	11.763512
1823.000000	11.752412
1822.000000	11.759856
1821.000000	11.665490
1820.000000	11.910637
1819.000000	11.741592
1818.000000	11.651987
1817.000000	11.602618
1816.000000	11.704342
1815.000000	11.655878
1814.000000	11.664309
1813.000000	11.752439
1812.000000	11.640858
1811.000000	11.720280
1810.000000	11.650485
1809.000000	11.727569
1808.000000	11.761264
1807.000000	11.794132
1806.000000	11.763972
1805.000000	11.819225
1804.000000	11.739430
1803.000000	11.636410
1802.000000	11.601256
1801.000000	11.633918
1800.000000	11.708897
1799.000000	11.726975
1798.000000	11.644665
1797.000000	11.710165
1796.000000	11.620344
1795.000000	11.679789
1794.000000	11.731999
1793.000000	11.633757
1792.000000	11.693351
1791.000000	11.776873
1790.000000	11.704854
1789.000000	11.798261
1788.000000	11.495371
1787.000000	11.695236
1786.000000	11.755795
1785.000000	11.680703
1784.000000	11.702078
1783.000000	11.750951
1782.000000	11.744864
1781.000000	11.698576
1780.000000	11.634159
1779.000000	11.729000
1778.000000	11.657596
1777.000000	11.735241
1776.000000	11.822627
1775.000000	11.712969
1774.000000	11.662805
1773.000000	11.768687
1772.000000	11.720091
1771.000000	11.892660
1770.000000	11.565569
1769.000000	11.607000
1768.000000	11.639759
1767.000000	11.840881
1766.000000	11.676374
1765.000000	11.733403
1764.000000	11.733079
1763.000000	11.839545
1762.000000	11.842135
1761.000000	11.702644
1760.000000	11.565835
1759.000000	11.775219
1758.000000	11.695775
1757.000000	11.758313
1756.000000	11.666538
1755.000000	11.661811
1754.000000	11.867384
1753.000000	11.647427
1752.000000	11.734133
1751.000000	11.730702
1750.000000	11.706822
1749.000000	11.797147
1748.000000	11.840063
1747.000000	11.648366
1746.000000	11.632579
1745.000000	11.732377
1744.000000	11.745946
1743.000000	11.646301
1742.000000	11.675944
1741.000000	11.855121
1740.000000	11.592711
1739.000000	11.800108
1738.000000	11.783139
1737.000000	11.763702
1736.000000	11.764325
1735.000000	11.745946
1734.000000	11.796495
1733.000000	11.814463
1732.000000	11.899837
1731.000000	11.628803
1730.000000	11.627036
1729.000000	11.616947
1728.000000	11.842108
1727.000000	11.816585
1726.000000	11.855312
1725.000000	11.832132
1724.000000	11.869051
1723.000000	11.736186
1722.000000	11.616920
1721.000000	11.667747
1720.000000	11.709302
1719.000000	11.813511
1718.000000	11.756661
1717.000000	11.811526
1716.000000	11.803016
1715.000000	11.806251
1714.000000	11.726597
1713.000000	11.702590
1712.000000	11.740971
1711.000000	11.762754
1710.000000	11.637455
1709.000000	11.655529
1708.000000	11.748245
1707.000000	11.733646
1706.000000	11.787454
1705.000000	11.765191
1704.000000	11.715559
1703.000000	11.620692
1702.000000	11.648688
1701.000000	11.720172
1700.000000	11.795708
1699.000000	11.685384
1698.000000	11.696367
1697.000000	11.716557
1696.000000	11.798669
1695.000000	11.726030
1694.000000	11.638955
1693.000000	11.720901
1692.000000	11.791851
1691.000000	11.803152
1690.000000	11.687483
1689.000000	11.687483
1688.000000	11.725760
1687.000000	11.770258
1686.000000	11.752331
1685.000000	11.735619
1684.000000	11.846908
1683.000000	11.806332
1682.000000	11.724707
1681.000000	11.584786
1680.000000	11.610582
1679.000000	11.662348
1678.000000	11.717528
1677.000000	11.614620
1676.000000	11.748516
1675.000000	11.707415
1674.000000	11.701432
1673.000000	11.677288
1672.000000	11.670488
1671.000000	11.738862
1670.000000	11.692840
1669.000000	11.679224
1668.000000	11.712133
1667.000000	11.774379
1666.000000	11.826466
1665.000000	11.823253
1664.000000	11.784740
1663.000000	11.803288
1662.000000	11.867876
1661.000000	11.780969
1660.000000	11.659744
1659.000000	11.634882
1658.000000	11.724572
1657.000000	11.676777
1656.000000	11.640027
1655.000000	11.687349
1654.000000	11.721630
1653.000000	11.676562
1652.000000	11.606466
1651.000000	11.624278
1650.000000	11.677208
1649.000000	11.734538
1648.000000	11.718391
1647.000000	11.681403
1646.000000	11.686111
1645.000000	11.696287
1644.000000	11.643914
1643.000000	11.619568
1642.000000	11.671778
1641.000000	11.669708
1640.000000	11.640322
1639.000000	11.658079
1638.000000	11.612801
1637.000000	11.628347
1636.000000	11.664497
1635.000000	11.694159
1634.000000	11.710488
1633.000000	11.700327
1632.000000	11.655556
1631.000000	11.715828
1630.000000	11.673847
1629.000000	11.635070
1628.000000	11.676804
1627.000000	11.644397
1626.000000	11.708223
1625.000000	11.751546
1624.000000	11.715019
1623.000000	11.638714
1622.000000	11.645684
1621.000000	11.676482
1620.000000	11.693755
1619.000000	11.705905
1618.000000	11.711243
1617.000000	11.661516
1616.000000	11.619916
1615.000000	11.673525
1614.000000	11.664846
1613.000000	11.671321
1612.000000	11.656093
1611.000000	11.659502
1610.000000	11.683555
1609.000000	11.694859
1608.000000	11.705743
1607.000000	11.681268
1606.000000	11.643137
1605.000000	11.674492
1604.000000	11.652121
1603.000000	11.599787
1602.000000	11.594126
1601.000000	11.665813
1600.000000	11.693863
1599.000000	11.686138
1598.000000	11.666162
1597.000000	11.666511
1596.000000	11.694536
1595.000000	11.674304
1594.000000	11.671885
1593.000000	11.602752
1592.000000	11.618498
1591.000000	11.622726
1590.000000	11.642091
1589.000000	11.698118
1588.000000	11.645443
1587.000000	11.612481
1586.000000	11.543008
1585.000000	11.613978
1584.000000	11.644665
1583.000000	11.668634
1582.000000	11.690336
1581.000000	11.655932
1580.000000	11.581532
1579.000000	11.607936
1578.000000	11.600534
1577.000000	11.582225
1576.000000	11.538305
1575.000000	11.616465
1574.000000	11.688237
1573.000000	11.718796
1572.000000	11.724140
1571.000000	11.684604
1570.000000	11.733755
1569.000000	11.678095
1568.000000	11.634749
1567.000000	11.667559
1566.000000	11.617963
1565.000000	11.629820
1564.000000	11.694832
1563.000000	11.589161
1562.000000	11.565942
1561.000000	11.727839
1560.000000	11.612962
1559.000000	11.637883
1558.000000	11.628347
1557.000000	11.733160
1556.000000	11.610261
1555.000000	11.556465
1554.000000	11.607294
1553.000000	11.670058
1552.000000	11.725301
1551.000000	11.577559
1550.000000	11.606279
1549.000000	11.572042
1548.000000	11.668499
1547.000000	11.599893
1546.000000	11.768199
1545.000000	11.623689
1544.000000	11.613470
1543.000000	11.613871
1542.000000	11.605744
1541.000000	11.645469
1540.000000	11.638446
1539.000000	11.655180
1538.000000	11.718580
1537.000000	11.770448
1536.000000	11.694725
1535.000000	11.650860
1534.000000	11.646167
1533.000000	11.618472
1532.000000	11.635499
1531.000000	11.613764
1530.000000	11.676777
1529.000000	11.677369
1528.000000	11.648768
1527.000000	11.689152
1526.000000	11.740889
1525.000000	11.717744
1524.000000	11.644451
1523.000000	11.613149
1522.000000	11.655610
1521.000000	11.574254
1520.000000	11.619863
1519.000000	11.646086
1518.000000	11.594686
1517.000000	11.628910
1516.000000	11.678283
1515.000000	11.707172
1514.000000	11.622485
1513.000000	11.662241
1512.000000	11.638232
1511.000000	11.612561
1510.000000	11.649519
1509.000000	11.658401
1508.000000	11.692867
1507.000000	11.656576
1506.000000	11.690821
1505.000000	11.708358
1504.000000	11.692813
1503.000000	11.642627
1502.000000	11.645818
1501.000000	11.668875
1500.000000	11.649707
1499.000000	11.688371
1498.000000	11.686541
1497.000000	11.692167
1496.000000	11.616091
1495.000000	11.662160
1494.000000	11.600054
1493.000000	11.658750
1492.000000	11.701674
1491.000000	11.645979
1490.000000	11.654322
1489.000000	11.636142
1488.000000	11.639411
1487.000000	11.724950
1486.000000	11.704315
1485.000000	11.713347
1484.000000	11.658670
1483.000000	11.580545
1482.000000	11.679009
1481.000000	11.696421
1480.000000	11.682882
1479.000000	11.694994
1478.000000	11.681322
1477.000000	11.693674
1476.000000	11.745297
1475.000000	11.710084
1474.000000	11.698360
1473.000000	11.681134
1472.000000	11.652926
1471.000000	11.707226
1470.000000	11.704234
1469.000000	11.798152
1468.000000	11.796414
1467.000000	11.712484
1466.000000	11.695425
1465.000000	11.708223
1464.000000	11.708682
1463.000000	11.750815
1462.000000	11.736078
1461.000000	11.661999
1460.000000	11.692194
1459.000000	11.682102
1458.000000	11.728838
1457.000000	11.708035
1456.000000	11.739322
1455.000000	11.712619
1454.000000	11.736997
1453.000000	11.742431
1452.000000	11.726975
1451.000000	11.762456
1450.000000	11.762727
1449.000000	11.730837
1448.000000	11.684685
1447.000000	11.689825
1446.000000	11.742593
1445.000000	11.756526
1444.000000	11.687133
1443.000000	11.743891
1442.000000	11.775599
1441.000000	11.760831
1440.000000	11.738105
1439.000000	11.696044
1438.000000	11.668016
1437.000000	11.694509
1436.000000	11.703264
1435.000000	11.718796
1434.000000	11.787128
1433.000000	11.754279
1432.000000	11.719417
1431.000000	11.710677
1430.000000	11.665893
1429.000000	11.671294
1428.000000	11.748597
1427.000000	11.768172
1426.000000	11.806958
1425.000000	11.775789
1424.000000	11.725895
1423.000000	11.721711
1422.000000	11.724626
1421.000000	11.777063
1420.000000	11.792557
1419.000000	11.820640
1418.000000	11.830143
1417.000000	11.794350
1416.000000	11.760506
1415.000000	11.786775
1414.000000	11.817483
1413.000000	11.831396
1412.000000	11.816286
1411.000000	11.801304
1410.000000	11.847480
1409.000000	11.872987
1408.000000	11.836001
1407.000000	11.795735
1406.000000	11.804973
1405.000000	11.838809
1404.000000	11.864461
1403.000000	11.831587
1402.000000	11.882286
1401.000000	11.920322
1400.000000	11.861729
1399.000000	11.846035
1398.000000	11.840908
1397.000000	11.803723
1396.000000	11.799891
1395.000000	11.829462
1394.000000	11.791960
1393.000000	11.829707
1392.000000	11.847044
1391.000000	11.857879
1390.000000	11.868805
1389.000000	11.901974
1388.000000	11.840526
1387.000000	11.803152
1386.000000	11.780263
1385.000000	11.814382
1384.000000	11.895234
1383.000000	11.874737
1382.000000	11.847971
1381.000000	11.871839
1380.000000	11.910637
1379.000000	11.886637
1378.000000	11.837609
1377.000000	11.755118
1376.000000	11.834175
1375.000000	11.865308
1374.000000	11.850236
1373.000000	11.842135
1372.000000	11.812967
1371.000000	11.815715
1370.000000	11.845080
1369.000000	11.815089
1368.000000	11.806332
1367.000000	11.854903
1366.000000	11.873069
1365.000000	11.908910
1364.000000	11.929109
1363.000000	11.932158
1362.000000	11.908306
1361.000000	11.848763
1360.000000	11.853675
1359.000000	11.825078
1358.000000	11.873698
1357.000000	11.853265
1356.000000	11.839490
1355.000000	11.853948
1354.000000	11.893755
1353.000000	11.879414
1352.000000	11.864788
1351.000000	11.883189
1350.000000	11.836137
1349.000000	11.835919
1348.000000	11.837555
1347.000000	11.852665
1346.000000	11.874135
1345.000000	11.881137
1344.000000	11.846717
1343.000000	11.901399
1342.000000	11.892934
1341.000000	11.873780
1340.000000	11.849636
1339.000000	11.815932
1338.000000	11.841235
1337.000000	11.848708
1336.000000	11.886500
1335.000000	11.863996
1334.000000	11.877718
1333.000000	11.840444
1332.000000	11.863696
1331.000000	11.822573
1330.000000	11.856131
1329.000000	11.860227
1328.000000	11.830497
1327.000000	11.866728
1326.000000	11.897782
1325.000000	11.931032
1324.000000	11.893810
1323.000000	11.837527
1322.000000	11.858288
1321.000000	11.845926
1320.000000	11.869926
1319.000000	11.882532
1318.000000	11.904660
1317.000000	11.905263
1316.000000	11.921530
1315.000000	11.926664
1314.000000	11.909979
1313.000000	11.843280
1312.000000	11.906031
1311.000000	11.904002
1310.000000	11.884393
1309.000000	11.831260
1308.000000	11.887157
1307.000000	11.916590
1306.000000	11.896220
1305.000000	11.954461
1304.000000	11.913462
1303.000000	11.908334
1302.000000	11.931966
1301.000000	11.912091
1300.000000	11.871046
1299.000000	11.929960
1298.000000	11.926115
1297.000000	11.930702
1296.000000	11.920569
1295.000000	11.975896
1294.000000	11.924687
1293.000000	11.932460
1292.000000	11.985606
1291.000000	11.952066
1290.000000	11.937599
1289.000000	11.898522
1288.000000	11.962832
1287.000000	11.968480
1286.000000	11.966827
1285.000000	11.872741
1284.000000	11.966331
1283.000000	11.974903
1282.000000	11.926307
1281.000000	11.935428
1280.000000	11.980419
1279.000000	11.936253
1278.000000	11.967956
1277.000000	11.987096
1276.000000	11.991458
1275.000000	12.027573
1274.000000	11.952865
1273.000000	12.014591
1272.000000	11.986462
1271.000000	11.982102
1270.000000	11.931993
1269.000000	11.938671
1268.000000	11.975179
1267.000000	11.959141
1266.000000	12.007594
1265.000000	12.002950
1264.000000	12.059131
1263.000000	11.982681
1262.000000	11.982791
1261.000000	11.982046
1260.000000	12.011936
1259.000000	12.052441
1258.000000	12.051608
1257.000000	12.006212
1256.000000	12.001596
1255.000000	12.007345
1254.000000	12.026410
1253.000000	12.037797
1252.000000	12.022977
1251.000000	12.033446
1250.000000	12.029235
1249.000000	12.046448
1248.000000	12.069325
1247.000000	12.054911
1246.000000	12.071299
1245.000000	12.089491
1244.000000	12.037325
1243.000000	12.037575
1242.000000	12.070604
1241.000000	12.051469
1240.000000	12.079891
1239.000000	12.028459
1238.000000	12.031866
1237.000000	12.024029
1236.000000	12.063019
1235.000000	12.033917
1234.000000	12.139701
1233.000000	12.109996
1232.000000	12.060241
1231.000000	12.047252
1230.000000	12.051414
1229.000000	12.091523
1228.000000	12.079891
1227.000000	12.047086
1226.000000	12.039792
1225.000000	12.080280
1224.000000	12.055688
1223.000000	12.059075
1222.000000	12.057187
1221.000000	12.079974
1220.000000	12.040486
1219.000000	12.102219
1218.000000	12.110303
1217.000000	12.128330
1216.000000	12.083841
1215.000000	12.110777
1214.000000	12.129531
1213.000000	12.109634
1212.000000	12.101884
1211.000000	12.099683
1210.000000	12.106873
1209.000000	12.113510
1208.000000	12.139925
1207.000000	12.134363
1206.000000	12.125817
1205.000000	12.107264
1204.000000	12.121155
1203.000000	12.114709
1202.000000	12.136068
1201.000000	12.092887
1200.000000	12.091439
1199.000000	12.166678
1198.000000	12.220895
1197.000000	12.164353
1196.000000	12.168891
1195.000000	12.152454
1194.000000	12.113426
1193.000000	12.133106
1192.000000	12.147083
1191.000000	12.126263
1190.000000	12.140316
1189.000000	12.151783
1188.000000	12.180413
1187.000000	12.179235
1186.000000	12.185911
1185.000000	12.190149
1184.000000	12.176319
1183.000000	12.156848
1182.000000	12.165361
1181.000000	12.147586
1180.000000	12.136934
1179.000000	12.150468
1178.000000	12.155085
1177.000000	12.163148
1176.000000	12.191215
1175.000000	12.216478
1174.000000	12.201718
1173.000000	12.184115
1172.000000	12.208182
1171.000000	12.200314
1170.000000	12.178702
1169.000000	12.210572
1168.000000	12.276936
1167.000000	12.248897
1166.000000	12.231536
1165.000000	12.243822
1164.000000	12.237480
1163.000000	12.245429
1162.000000	12.239396
1161.000000	12.233677
1160.000000	12.257672
1159.000000	12.238495
1158.000000	12.236522
1157.000000	12.263601
1156.000000	12.268628
1155.000000	12.279622
1154.000000	12.297023
1153.000000	12.316179
1152.000000	12.329175
1151.000000	12.293598
1150.000000	12.254060
1149.000000	12.238607
1148.000000	12.255781
1147.000000	12.242751
1146.000000	12.250985
1145.000000	12.276964
1144.000000	12.283383
1143.000000	12.293711
1142.000000	12.271114
1141.000000	12.285674
1140.000000	12.327443
1139.000000	12.319271
1138.000000	12.322136
1137.000000	12.334939
1136.000000	12.313911
1135.000000	12.300223
1134.000000	12.325030
1133.000000	12.352049
1132.000000	12.361524
1131.000000	12.322874
1130.000000	12.336785
1129.000000	12.307193
1128.000000	12.319186
1127.000000	12.337950
1126.000000	12.296401
1125.000000	12.308751
1124.000000	12.328039
1123.000000	12.359901
1122.000000	12.358023
1121.000000	12.327727
1120.000000	12.388879
1119.000000	12.376504
1118.000000	12.322136
1117.000000	12.332383
1116.000000	12.355292
1115.000000	12.399324
1114.000000	12.433374
1113.000000	12.438385
1112.000000	12.374510
1111.000000	12.368983
1110.000000	12.357738
1109.000000	12.368528
1108.000000	12.368043
1107.000000	12.397839
1106.000000	12.385770
1105.000000	12.425990
1104.000000	12.391903
1103.000000	12.392502
1102.000000	12.410121
1101.000000	12.440763
1100.000000	12.433660
1099.000000	12.428222
1098.000000	12.410692
1097.000000	12.397211
1096.000000	12.403693
1095.000000	12.445461
1094.000000	12.469556
1093.000000	12.498503
1092.000000	12.486249
1091.000000	12.477426
1090.000000	12.469269
1089.000000	12.455409
1088.000000	12.468896
1087.000000	12.441364
1086.000000	12.429109
1085.000000	12.451825
1084.000000	12.511345
1083.000000	12.480127
1082.000000	12.466054
1081.000000	12.525959
1080.000000	12.539407
1079.000000	12.503828
1078.000000	12.561138
1077.000000	12.481449
1076.000000	12.510740
1075.000000	12.563713
1074.000000	12.550528
1073.000000	12.554864
1072.000000	12.565073
1071.000000	12.450735
1070.000000	12.568198
1069.000000	12.548448
1068.000000	12.640813
1067.000000	12.531758
1066.000000	12.507629
1065.000000	12.534182
1064.000000	12.603147
1063.000000	12.545992
1062.000000	12.616038
1061.000000	12.656802
1060.000000	12.603176
1059.000000	12.593168
1058.000000	12.586732
1057.000000	12.578620
1056.000000	12.614063
1055.000000	12.508119
1054.000000	12.621472
1053.000000	12.656074
1052.000000	12.625832
1051.000000	12.636971
1050.000000	12.616125
1049.000000	12.588993
1048.000000	12.715253
1047.000000	12.563134
1046.000000	12.638484
1045.000000	12.582270
1044.000000	12.597083
1043.000000	12.665315
1042.000000	12.694658
1041.000000	12.598070
1040.000000	12.614760
1039.000000	12.649053
1038.000000	12.676577
1037.000000	12.734239
1036.000000	12.735207
1035.000000	12.748791
1034.000000	12.658318
1033.000000	12.675176
1032.000000	12.652548
1031.000000	12.705566
1030.000000	12.655812
1029.000000	12.753312
1028.000000	12.732627
1027.000000	12.698195
1026.000000	12.691005
1025.000000	12.727350
1024.000000	12.737436
1023.000000	12.678766
1022.000000	12.776121
1021.000000	12.823424
1020.000000	12.722457
1019.000000	12.776621
1018.000000	12.831428
1017.000000	12.723805
1016.000000	12.724948
1015.000000	12.808669
1014.000000	12.796317
1013.000000	12.758981
1012.000000	12.745269
1011.000000	12.813005
1010.000000	12.880241
1009.000000	12.858106
1008.000000	12.833703
1007.000000	12.811442
1006.000000	12.897930
1005.000000	12.822804
1004.000000	12.848606
1003.000000	12.901405
1002.000000	12.878047
1001.000000	12.796347
1000.000000	12.816664
999.000000	12.825668
998.000000	12.871495
997.000000	12.888014
996.000000	12.882466
995.000000	12.838669
994.000000	12.890537
993.000000	12.817992
992.000000	12.808993
991.000000	12.823011
990.000000	12.874193
989.000000	12.897692
988.000000	12.876772
987.000000	12.931443
986.000000	12.932575
985.000000	12.983507
984.000000	12.880241
983.000000	12.921800
982.000000	12.944402
981.000000	13.021440
980.000000	12.956419
979.000000	12.949768
978.000000	12.889795
977.000000	12.958329
976.000000	12.921205
975.000000	12.979979
974.000000	13.005439
973.000000	13.035059
972.000000	12.953466
971.000000	12.950454
970.000000	13.025518
969.000000	13.034789
968.000000	13.118344
967.000000	13.060476
966.000000	13.071999
965.000000	13.085310
964.000000	13.067094
963.000000	13.052779
962.000000	13.032688
961.000000	13.107323
960.000000	13.068237
959.000000	13.176680
958.000000	13.094261
957.000000	13.202039
956.000000	13.198756
955.000000	13.159761
954.000000	13.268872
953.000000	13.211131
952.000000	13.086033
951.000000	13.142954
950.000000	13.205991
949.000000	13.108621
948.000000	13.051307
947.000000	13.129162
946.000000	13.145345
945.000000	13.111247
944.000000	13.174951
943.000000	13.168764
942.000000	13.145466
941.000000	13.104366
940.000000	13.115565
939.000000	13.157216
938.000000	13.232472
937.000000	13.206995
936.000000	13.142712
935.000000	13.129071
934.000000	13.139081
933.000000	13.238171
932.000000	13.179047
931.000000	13.164610
930.000000	13.347441
929.000000	13.448381
928.000000	13.304360
927.000000	13.225314
926.000000	13.212774
925.000000	13.296582
924.000000	13.349623
923.000000	13.356818
922.000000	13.407784
921.000000	13.380520
920.000000	13.324472
919.000000	13.364724
918.000000	13.410408
917.000000	13.374483
916.000000	13.285809
915.000000	13.329259
914.000000	13.460990
913.000000	13.449434
912.000000	13.541694
911.000000	13.637068
910.000000	13.709828
909.000000	13.592614
908.000000	13.427124
907.000000	13.477862
906.000000	13.574567
905.000000	13.271316
904.000000	13.024348
903.000000	13.487393
902.000000	13.566162
901.000000	13.300409
900.000000	13.476714
899.000000	13.729698
898.000000	13.743584
897.000000	13.857695
896.000000	13.578569
895.000000	13.630475
894.000000	13.732165
893.000000	13.637445
892.000000	13.709354
891.000000	13.507407
890.000000	13.585230
889.000000	13.435722
888.000000	13.750421
887.000000	13.532935
886.000000	13.719681
885.000000	13.732133
884.000000	13.905865
883.000000	13.391555
882.000000	13.251438
881.000000	13.292541
880.000000	13.445377
879.000000	14.106718
878.000000	14.152104
877.000000	14.254829
876.000000	13.975585
875.000000	14.434774
874.000000	13.603887
873.000000	13.453336
872.000000	13.980670
871.000000	13.800728
870.000000	13.378395
869.000000	13.863089
868.000000	13.998484
867.000000	14.493724
866.000000	13.818185
865.000000	13.133667
864.000000	13.201856
863.000000	13.867431
862.000000	13.793612
861.000000	13.283423
860.000000	12.640143
859.000000	12.464332
858.000000	12.593574
857.000000	12.629379
856.000000	12.824251
855.000000	13.114508
854.000000	12.968926
853.000000	13.013107
852.000000	13.133516
851.000000	13.222787
850.000000	13.141683
849.000000	12.915850
848.000000	12.903752
847.000000	13.012658
846.000000	13.088715
845.000000	13.147071
844.000000	13.119220
843.000000	13.127741
842.000000	13.313063
841.000000	13.303809
840.000000	13.209458
839.000000	13.340988
838.000000	13.331714
837.000000	13.255619
836.000000	13.342401
835.000000	13.403154
834.000000	13.378518
833.000000	13.415998
832.000000	13.403061
831.000000	13.398710
830.000000	13.448907
829.000000	13.510456
828.000000	13.428361
827.000000	13.457457
826.000000	13.461920
825.000000	13.453243
824.000000	13.573349
823.000000	13.440023
822.000000	13.433030
821.000000	13.555483
820.000000	13.550178
819.000000	13.556981
818.000000	13.608241
817.000000	13.620153
816.000000	13.565943
815.000000	13.644386
814.000000	13.622412
813.000000	13.651363
812.000000	13.689860
811.000000	13.669102
810.000000	13.737857
809.000000	13.647654
808.000000	13.772824
807.000000	13.704683
806.000000	13.695062
805.000000	13.688158
804.000000	13.783992
803.000000	13.747445
802.000000	13.741590
801.000000	13.839902
800.000000	13.760937
799.000000	13.805019
798.000000	13.802794
797.000000	13.842164
796.000000	13.813445
795.000000	13.862865
794.000000	13.867941
793.000000	13.881807
792.000000	13.894726
791.000000	13.853452
790.000000	13.939526
789.000000	13.953784
788.000000	13.876598
787.000000	13.901479
786.000000	13.937247
785.000000	13.912975
784.000000	13.917044
783.000000	13.948291
782.000000	13.947970
781.000000	13.951503
780.000000	13.896998
779.000000	14.023906
778.000000	14.006544
777.000000	14.005125
776.000000	14.039964
775.000000	13.994681
774.000000	14.085945
773.000000	14.089157
772.000000	14.042066
771.000000	14.068960
770.000000	14.028460
769.000000	14.037378
768.000000	14.144090
767.000000	14.115849
766.000000	14.075343
765.000000	14.080206
764.000000	14.099217
763.000000	14.060508
762.000000	14.067502
761.000000	14.097886
760.000000	14.104770
759.000000	14.066142
758.000000	14.039997
757.000000	14.124562
756.000000	14.060410
755.000000	14.073982
754.000000	14.100321
753.000000	14.070094
752.000000	13.981797
751.000000	13.962751
750.000000	13.996195
749.000000	13.932178
748.000000	13.939365
747.000000	13.897158
746.000000	13.935065
745.000000	13.910348
744.000000	13.837129
743.000000	13.836492
742.000000	13.826014
741.000000	13.801268
740.000000	13.737699
739.000000	13.733303
738.000000	13.660261
737.000000	13.669354
736.000000	13.645549
735.000000	13.649477
734.000000	13.615952
733.000000	13.567911
732.000000	13.543565
731.000000	13.541382
730.000000	13.499417
729.000000	13.495874
728.000000	13.467221
727.000000	13.451819
726.000000	13.421746
725.000000	13.462571
724.000000	13.441477
723.000000	13.414022
722.000000	13.387516
721.000000	13.357156
720.000000	13.339207
719.000000	13.340773
718.000000	13.344460
717.000000	13.314596
716.000000	13.344982
715.000000	13.352513
714.000000	13.369618
713.000000	13.378549
712.000000	13.350545
711.000000	13.374483
710.000000	13.409081
709.000000	13.437733
708.000000	13.459285
707.000000	13.474573
706.000000	13.460215
705.000000	13.547994
704.000000	13.555577
703.000000	13.586951
702.000000	13.620342
701.000000	13.645863
700.000000	13.679209
699.000000	13.717217
698.000000	13.735928
697.000000	13.777804
696.000000	13.837703
695.000000	13.855143
694.000000	13.872604
693.000000	13.931761
692.000000	13.953977
691.000000	13.960372
690.000000	13.984180
689.000000	14.023228
688.000000	14.063681
687.000000	14.070580
686.000000	14.099347
685.000000	14.102984
684.000000	14.145620
683.000000	14.164329
682.000000	14.176826
681.000000	14.206628
680.000000	14.229643
679.000000	14.248266
678.000000	14.277988
677.000000	14.293876
676.000000	14.292329
675.000000	14.308595
674.000000	14.346799
673.000000	14.373151
672.000000	14.395044
671.000000	14.403333
670.000000	14.403698
669.000000	14.427099
668.000000	14.461888
667.000000	14.462055
666.000000	14.486451
665.000000	14.521116
664.000000	14.526567
663.000000	14.501202
662.000000	14.489186
661.000000	14.520849
660.000000	14.528106
659.000000	14.526032
658.000000	14.549699
657.000000	14.548560
656.000000	14.554323
655.000000	14.557741
654.000000	14.537777
653.000000	14.547220
652.000000	14.554021
651.000000	14.547421
650.000000	14.546650
649.000000	14.547086
648.000000	14.550268
647.000000	14.563072
646.000000	14.571894
645.000000	14.576592
644.000000	14.600207
643.000000	14.617059
642.000000	14.609555
641.000000	14.607033
640.000000	14.631202
639.000000	14.644380
638.000000	14.639863
637.000000	14.661047
636.000000	14.678883
635.000000	14.698601
634.000000	14.724142
633.000000	14.748573
632.000000	14.758764
631.000000	14.774337
630.000000	14.799260
629.000000	14.813306
628.000000	14.819106
627.000000	14.831292
626.000000	14.867228
625.000000	14.888296
624.000000	14.898584
623.000000	14.910630
622.000000	14.934064
621.000000	14.936746
620.000000	14.946827
619.000000	14.984871
618.000000	15.006520
617.000000	15.020556
616.000000	15.044612
615.000000	15.061457
614.000000	15.106992
613.000000	15.130455
612.000000	15.127669
611.000000	15.149594
610.000000	15.163205
609.000000	15.204075
608.000000	15.224429
607.000000	15.242493
606.000000	15.272495
605.000000	15.308654
604.000000	15.324524
603.000000	15.346488
602.000000	15.395507
601.000000	15.437110
600.000000	15.456815
599.000000	15.490484
598.000000	15.535814
597.000000	15.567720
596.000000	15.588991
595.000000	15.595633
594.000000	15.601487
593.000000	15.630433
592.000000	15.662281
591.000000	15.679817
590.000000	15.677796
589.000000	15.699723
588.000000	15.728163
587.000000	15.715637
586.000000	15.730952
585.000000	15.747550
584.000000	15.741242
583.000000	15.722297
582.000000	15.718786
581.000000	15.689713
580.000000	15.674331
579.000000	15.636192
578.000000	15.564494
577.000000	15.503116
576.000000	15.453078
575.000000	15.415798
574.000000	15.351542
573.000000	15.308477
572.000000	15.273621
571.000000	15.215177
570.000000	15.176758
569.000000	15.162262
568.000000	15.170259
567.000000	15.157934
566.000000	15.178820
565.000000	15.202115
564.000000	15.234352
563.000000	15.266237
562.000000	15.279249
561.000000	15.308654
560.000000	15.368448
559.000000	15.413845
558.000000	15.466107
557.000000	15.537996
556.000000	15.576289
555.000000	15.618488
554.000000	15.657773
553.000000	15.709559
552.000000	15.752410
551.000000	15.789486
550.000000	15.838936
549.000000	15.890333
548.000000	15.916369
547.000000	15.947661
546.000000	15.992487
545.000000	16.025921
544.000000	16.067045
543.000000	16.103119
542.000000	16.152100
541.000000	16.181993
540.000000	16.187396
539.000000	16.232410
538.000000	16.261215
537.000000	16.290785
536.000000	16.288084
535.000000	16.322475
534.000000	16.334092
533.000000	16.353209
532.000000	16.389473
531.000000	16.404122
530.000000	16.410356
529.000000	16.451633
528.000000	16.451973
527.000000	16.459855
526.000000	16.478550
525.000000	16.501370
524.000000	16.509199
523.000000	16.554002
522.000000	16.573453
521.000000	16.570706
520.000000	16.595754
519.000000	16.614987
518.000000	16.639490
517.000000	16.646924
516.000000	16.675313
515.000000	16.678116
514.000000	16.669708
513.000000	16.679768
512.000000	16.669862
511.000000	16.661803
510.000000	16.660959
509.000000	16.655896
508.000000	16.629378
507.000000	16.631561
506.000000	16.588534
505.000000	16.621760
504.000000	16.597398
503.000000	16.575666
502.000000	16.541352
501.000000	16.541923
500.000000	16.539524
499.000000	16.573415
498.000000	16.568455
497.000000	16.574025
496.000000	16.588075
495.000000	16.578720
494.000000	16.592889
493.000000	16.598697
492.000000	16.619234
491.000000	16.596710
490.000000	16.626238
489.000000	16.631982
488.000000	16.669785
487.000000	16.659310
486.000000	16.695983
485.000000	16.694369
484.000000	16.722762
483.000000	16.717757
482.000000	16.719181
481.000000	16.749853
480.000000	16.790514
479.000000	16.811134
478.000000	16.833677
477.000000	16.873105
476.000000	16.890636
475.000000	16.937917
474.000000	16.950636
473.000000	16.982358
472.000000	17.006385
471.000000	17.028994
470.000000	17.075247
469.000000	17.078393
468.000000	17.108345
467.000000	17.150193
466.000000	17.177383
465.000000	17.208262
464.000000	17.223682
463.000000	17.257147
462.000000	17.266488
461.000000	17.292668
460.000000	17.330895
459.000000	17.312070
458.000000	17.369767
457.000000	17.407043
456.000000	17.403436
455.000000	17.444800
454.000000	17.450465
453.000000	17.473745
452.000000	17.471895
451.000000	17.516850
450.000000	17.531497
449.000000	17.558362
448.000000	17.553713
447.000000	17.591667
446.000000	17.591019
445.000000	17.604472
444.000000	17.617124
443.000000	17.637133
442.000000	17.639611
441.000000	17.663713
440.000000	17.674901
439.000000	17.697625
438.000000	17.736176
437.000000	17.747533
436.000000	17.774197
435.000000	17.792050
434.000000	17.781320
433.000000	17.810495
432.000000	17.856157
431.000000	17.904492
430.000000	17.916204
429.000000	17.929245
428.000000	17.975128
427.000000	17.987011
426.000000	17.988875
425.000000	18.029015
424.000000	18.064710
423.000000	18.066624
422.000000	18.089477
421.000000	18.114277
420.000000	18.156912
419.000000	18.180507
418.000000	18.196841
417.000000	18.215999
416.000000	18.220907
415.000000	18.264004
414.000000	18.317154
413.000000	18.340197
412.000000	18.348011
411.000000	18.346617
410.000000	18.322047
409.000000	18.321879
408.000000	18.273301
407.000000	18.238033
406.000000	18.171509
405.000000	18.065168
404.000000	17.960028
403.000000	17.813900
402.000000	17.617854
401.000000	17.423243
400.000000	17.184781
399.000000	16.912274
398.000000	16.623865
397.000000	16.287821
396.000000	15.914427
395.000000	15.453612
394.000000	15.032216
393.000000	14.614939
392.000000	14.158362
391.000000	13.687590
390.000000	13.230919
389.000000	12.780034
388.000000	12.357369
387.000000	11.952094
386.000000	11.562667
385.000000	11.207816
384.000000	10.849332
383.000000	10.553002
382.000000	10.300422
381.000000	10.033998
380.000000	9.769020
379.000000	9.523575
378.000000	9.226946
377.000000	8.978566
376.000000	8.796016
375.000000	8.604131
374.000000	8.444540
373.000000	8.331573
372.000000	8.240660
371.000000	8.124544
370.000000	7.982005
369.000000	7.874065
368.000000	7.761542
367.000000	7.676054
366.000000	7.601950
365.000000	7.499115
364.000000	7.411054
363.000000	7.322224
362.000000	7.245060
361.000000	7.170179
360.000000	7.111382
359.000000	7.037591
358.000000	6.977695
357.000000	6.944596
356.000000	6.899045
355.000000	6.847720
354.000000	6.797888
353.000000	6.785924
352.000000	6.765377
351.000000	6.722116
350.000000	6.709482
349.000000	6.690892
348.000000	6.690645
347.000000	6.662635
346.000000	6.660564
345.000000	6.665166
344.000000	6.660395
343.000000	6.647724
342.000000	6.638531
341.000000	6.636911
340.000000	6.662021
339.000000	6.676963
338.000000	6.678747
337.000000	6.714196
336.000000	6.734820
335.000000	6.730774
334.000000	6.762823
333.000000	6.740421
332.000000	6.766125
331.000000	6.813935
330.000000	6.837038
329.000000	6.879946
328.000000	6.887538
327.000000	6.896282
326.000000	6.930028
325.000000	6.952148
324.000000	6.965880
323.000000	7.014424
322.000000	7.048326
321.000000	7.044578
320.000000	7.066299
319.000000	6.987342
318.000000	6.971994
317.000000	7.032375
316.000000	6.986296
315.000000	6.991414
314.000000	6.993442
313.000000	7.046557
312.000000	7.085818
311.000000	7.076752
310.000000	7.077714
309.000000	7.114985
308.000000	7.099651
307.000000	7.037348
306.000000	7.061143
305.000000	7.040200
304.000000	7.018802
303.000000	7.025431
302.000000	7.047921
301.000000	7.009403
300.000000	6.915140
299.000000	6.921146
298.000000	6.934019
297.000000	6.895043
296.000000	6.903765
295.000000	6.866177
294.000000	6.808603
293.000000	6.819743
292.000000	6.798154
291.000000	6.799140
290.000000	6.775713
289.000000	6.740048
288.000000	6.725197
287.000000	6.668052
286.000000	6.705652
285.000000	6.687996
284.000000	6.656133
283.000000	6.661806
282.000000	6.692155
281.000000	6.653038
280.000000	6.612916
279.000000	6.617074
278.000000	6.626070
277.000000	6.631259
276.000000	6.600107
275.000000	6.614545
274.000000	6.597737
273.000000	6.573596
272.000000	6.537354
271.000000	6.517349
270.000000	6.535322
269.000000	6.527893
268.000000	6.517664
267.000000	6.539522
266.000000	6.498274
265.000000	6.480567
264.000000	6.522303
263.000000	6.439928
262.000000	6.475987
261.000000	6.474139
260.000000	6.420487
259.000000	6.421404
258.000000	6.412302
257.000000	6.404954
256.000000	6.371123
255.000000	6.362650
254.000000	6.403199
253.000000	6.342274
252.000000	6.319344
251.000000	6.310532
250.000000	6.365390
249.000000	6.297265
248.000000	6.275596
247.000000	6.283100
246.000000	6.289252
245.000000	6.291280
244.000000	6.268606
243.000000	6.267683
242.000000	6.284533
241.000000	6.275856
240.000000	6.276781
239.000000	6.278328
238.000000	6.287746
237.000000	6.293569
236.000000	6.273415
235.000000	6.297715
234.000000	6.318646
233.000000	6.335983
232.000000	6.302081
231.000000	6.351057
230.000000	6.365829
229.000000	6.361390
228.000000	6.373808
227.000000	6.377097
226.000000	6.425087
225.000000	6.468938
224.000000	6.435540
223.000000	6.497720
222.000000	6.473080
221.000000	6.541103
220.000000	6.538874
219.000000	6.588795
218.000000	6.556257
217.000000	6.636116
216.000000	6.625154
215.000000	6.641987
214.000000	6.689243
213.000000	6.747781
212.000000	6.736976
211.000000	6.757655
210.000000	6.780052
209.000000	6.771408
208.000000	6.798185
207.000000	6.776368
206.000000	6.831625
205.000000	6.970405
204.000000	7.026855
203.000000	6.995037
202.000000	7.044157
201.000000	7.118099
200.000000	7.136446
199.000000	7.244009
198.000000	7.381676
197.000000	7.475565
196.000000	7.574483
195.000000	7.704882
194.000000	7.973225
193.000000	8.460850
192.000000	9.159631
191.000000	10.176865
190.000000	13.760652
189.000000	22.520913
188.000000	42.572877
187.000000	82.597899
186.000000	95.999506
185.000000	101.508404
184.000000	94.439352
183.000000	91.578600
182.000000	94.768935
181.000000	101.821151
180.000000	99.080229
179.000000	98.996764
178.000000	99.762196
177.000000	100.348758
176.000000	102.611019
175.000000	97.813320
