PE UV       SUBTECH     SPECTRUM    ASCII       PEDS        4.00        
   -1
Sample1.Sample.Raw.ASC
25/05/30
11:15:53.00
25/06/06
08:54:54.00
tom jordan
CISRO R1
175.000000
1
Lambda 1050
1050L1807051
PerkinElmer UV WinLab 6.4.0.973 / 2.02.06 Lambda 900 UV/VIS/NIR, Jan 28 2016 16:58:34

0
0
3350
0
0
UV/VIS
1
1
1
RBeamAtt,SBeamAtt,150mm sphere / downward view, WB InGaAs Detector
0
0
0
0
Program
Program
3350
3350
3350
0
1
 
 
 
0
 
860.8
319.2
860.8
Front
100
 
S:100 R:100
0
0
0
0
 
0
 
 
 
0
 
 
0
0
0
0
0
 
 
 
 
0
0


0
0
#HDR
-1
-1
#GR
nm
%T
1.0
0.0
2000.000000
-1.000000
1826
8
105.288030
6.198449
#DATA
2000.000000	12.386112
1999.000000	12.186192
1998.000000	11.643324
1997.000000	11.362791
1996.000000	11.685573
1995.000000	11.597597
1994.000000	12.018852
1993.000000	12.004802
1992.000000	11.733376
1991.000000	11.486746
1990.000000	11.748407
1989.000000	11.905565
1988.000000	11.605931
1987.000000	11.745108
1986.000000	11.666484
1985.000000	11.698199
1984.000000	11.720712
1983.000000	11.704315
1982.000000	11.785527
1981.000000	12.063602
1980.000000	12.022921
1979.000000	11.954489
1978.000000	11.289690
1977.000000	11.626714
1976.000000	11.958150
1975.000000	11.576413
1974.000000	11.616733
1973.000000	11.890305
1972.000000	11.931444
1971.000000	11.687941
1970.000000	11.616679
1969.000000	11.534426
1968.000000	11.722790
1967.000000	11.548724
1966.000000	11.284855
1965.000000	11.484233
1964.000000	11.436839
1963.000000	11.818953
1962.000000	11.737132
1961.000000	11.717636
1960.000000	11.763404
1959.000000	11.679332
1958.000000	11.721117
1957.000000	11.631320
1956.000000	11.747785
1955.000000	11.618204
1954.000000	11.820504
1953.000000	11.671159
1952.000000	11.662805
1951.000000	11.709167
1950.000000	11.332690
1949.000000	11.863122
1948.000000	11.515081
1947.000000	11.474744
1946.000000	11.630383
1945.000000	11.461198
1944.000000	11.385838
1943.000000	11.575160
1942.000000	11.962143
1941.000000	11.453389
1940.000000	11.885843
1939.000000	11.901864
1938.000000	11.657703
1937.000000	11.328933
1936.000000	11.795843
1935.000000	11.479395
1934.000000	11.510840
1933.000000	11.665249
1932.000000	11.535356
1931.000000	11.682210
1930.000000	11.620291
1929.000000	11.702590
1928.000000	11.700327
1927.000000	11.461752
1926.000000	11.660307
1925.000000	11.621174
1924.000000	11.584706
1923.000000	11.586253
1922.000000	11.544497
1921.000000	11.673148
1920.000000	11.553272
1919.000000	11.792069
1918.000000	12.086791
1917.000000	11.730594
1916.000000	11.387149
1915.000000	12.080614
1914.000000	11.853838
1913.000000	11.588174
1912.000000	11.234481
1911.000000	11.353794
1910.000000	11.860418
1909.000000	11.849472
1908.000000	11.929960
1907.000000	11.991845
1906.000000	12.004332
1905.000000	11.878566
1904.000000	11.978902
1903.000000	11.704962
1902.000000	11.554629
1901.000000	11.840581
1900.000000	11.892578
1899.000000	12.171553
1898.000000	12.184312
1897.000000	12.065130
1896.000000	11.939744
1895.000000	11.759314
1894.000000	11.892249
1893.000000	11.829462
1892.000000	11.858070
1891.000000	12.124030
1890.000000	12.020790
1889.000000	11.772806
1888.000000	11.951021
1887.000000	12.194753
1886.000000	12.039792
1885.000000	11.890990
1884.000000	11.736240
1883.000000	11.468404
1882.000000	11.487671
1881.000000	11.583905
1880.000000	11.685250
1879.000000	11.654939
1878.000000	11.615743
1877.000000	11.831669
1876.000000	11.876678
1875.000000	11.834775
1874.000000	11.973772
1873.000000	12.157408
1872.000000	11.988946
1871.000000	11.971016
1870.000000	12.216646
1869.000000	12.148957
1868.000000	11.875585
1867.000000	11.851082
1866.000000	12.005797
1865.000000	11.977412
1864.000000	11.965394
1863.000000	11.889758
1862.000000	12.093611
1861.000000	12.299034
1860.000000	12.056576
1859.000000	11.691036
1858.000000	11.616947
1857.000000	11.596288
1856.000000	11.657623
1855.000000	11.819933
1854.000000	11.806196
1853.000000	11.780236
1852.000000	11.685088
1851.000000	11.604088
1850.000000	11.927983
1849.000000	11.916974
1848.000000	11.814817
1847.000000	11.914889
1846.000000	11.852064
1845.000000	11.754279
1844.000000	11.934933
1843.000000	11.761535
1842.000000	11.527258
1841.000000	11.831124
1840.000000	11.879113
1839.000000	11.915904
1838.000000	11.879851
1837.000000	11.716934
1836.000000	11.787915
1835.000000	11.704153
1834.000000	11.629526
1833.000000	11.787155
1832.000000	11.750761
1831.000000	11.493519
1830.000000	11.787915
1829.000000	11.705070
1828.000000	11.741917
1827.000000	11.843798
1826.000000	11.919032
1825.000000	11.776195
1824.000000	11.448089
1823.000000	11.375880
1822.000000	11.550586
1821.000000	11.737511
1820.000000	11.425915
1819.000000	11.576146
1818.000000	11.587720
1817.000000	11.669466
1816.000000	11.665114
1815.000000	11.839463
1814.000000	11.868914
1813.000000	11.663476
1812.000000	11.633382
1811.000000	11.562294
1810.000000	11.481140
1809.000000	11.666726
1808.000000	11.591963
1807.000000	11.512854
1806.000000	11.734592
1805.000000	11.741782
1804.000000	11.807692
1803.000000	11.596769
1802.000000	11.596235
1801.000000	11.485635
1800.000000	11.456527
1799.000000	11.528903
1798.000000	11.640403
1797.000000	11.718310
1796.000000	11.654671
1795.000000	11.577666
1794.000000	11.595701
1793.000000	11.534851
1792.000000	11.599680
1791.000000	11.608684
1790.000000	11.720550
1789.000000	11.630275
1788.000000	11.664792
1787.000000	11.871128
1786.000000	11.757094
1785.000000	11.795979
1784.000000	11.579185
1783.000000	11.759775
1782.000000	11.631588
1781.000000	11.671724
1780.000000	11.569005
1779.000000	11.775789
1778.000000	11.746730
1777.000000	11.465870
1776.000000	11.775138
1775.000000	11.587774
1774.000000	11.670192
1773.000000	11.700462
1772.000000	11.622565
1771.000000	11.452017
1770.000000	11.703992
1769.000000	11.715613
1768.000000	11.820205
1767.000000	11.810791
1766.000000	11.698414
1765.000000	11.620987
1764.000000	11.527921
1763.000000	11.779748
1762.000000	11.412979
1761.000000	11.558248
1760.000000	11.630034
1759.000000	11.757879
1758.000000	11.730000
1757.000000	11.529912
1756.000000	11.627812
1755.000000	11.786205
1754.000000	11.737159
1753.000000	11.649734
1752.000000	11.525214
1751.000000	11.764541
1750.000000	11.671052
1749.000000	11.569724
1748.000000	11.612320
1747.000000	11.617348
1746.000000	11.588227
1745.000000	11.529620
1744.000000	11.618712
1743.000000	11.761020
1742.000000	11.776033
1741.000000	11.477994
1740.000000	11.456448
1739.000000	11.647186
1738.000000	11.588734
1737.000000	11.570763
1736.000000	11.576253
1735.000000	11.827501
1734.000000	11.761779
1733.000000	11.755335
1732.000000	11.687968
1731.000000	11.664174
1730.000000	11.803451
1729.000000	11.771912
1728.000000	11.624947
1727.000000	11.654751
1726.000000	11.720874
1725.000000	11.592124
1724.000000	11.670810
1723.000000	11.732431
1722.000000	11.600214
1721.000000	11.775355
1720.000000	11.646542
1719.000000	11.649600
1718.000000	11.688102
1717.000000	11.745405
1716.000000	11.733619
1715.000000	11.561788
1714.000000	11.604782
1713.000000	11.601683
1712.000000	11.574787
1711.000000	11.676105
1710.000000	11.485979
1709.000000	11.522985
1708.000000	11.711890
1707.000000	11.631266
1706.000000	11.731323
1705.000000	11.645255
1704.000000	11.589535
1703.000000	11.583959
1702.000000	11.481219
1701.000000	11.485793
1700.000000	11.499025
1699.000000	11.516407
1698.000000	11.573747
1697.000000	11.560111
1696.000000	11.792829
1695.000000	11.684712
1694.000000	11.652926
1693.000000	11.686676
1692.000000	11.683447
1691.000000	11.595033
1690.000000	11.569724
1689.000000	11.610315
1688.000000	11.466820
1687.000000	11.504957
1686.000000	11.454391
1685.000000	11.540271
1684.000000	11.685815
1683.000000	11.636812
1682.000000	11.582278
1681.000000	11.643646
1680.000000	11.644906
1679.000000	11.640081
1678.000000	11.513808
1677.000000	11.471627
1676.000000	11.548644
1675.000000	11.560350
1674.000000	11.623342
1673.000000	11.754496
1672.000000	11.649036
1671.000000	11.617455
1670.000000	11.674412
1669.000000	11.595354
1668.000000	11.653436
1667.000000	11.675944
1666.000000	11.629686
1665.000000	11.596075
1664.000000	11.704584
1663.000000	11.688721
1662.000000	11.514127
1661.000000	11.603206
1660.000000	11.614326
1659.000000	11.493757
1658.000000	11.574067
1657.000000	11.645282
1656.000000	11.600641
1655.000000	11.541201
1654.000000	11.591349
1653.000000	11.600989
1652.000000	11.596261
1651.000000	11.617696
1650.000000	11.617535
1649.000000	11.611491
1648.000000	11.581025
1647.000000	11.631400
1646.000000	11.649385
1645.000000	11.616171
1644.000000	11.620077
1643.000000	11.633222
1642.000000	11.661435
1641.000000	11.680784
1640.000000	11.703830
1639.000000	11.745108
1638.000000	11.661892
1637.000000	11.560776
1636.000000	11.729000
1635.000000	11.749652
1634.000000	11.620023
1633.000000	11.543992
1632.000000	11.630409
1631.000000	11.622887
1630.000000	11.624225
1629.000000	11.660227
1628.000000	11.586573
1627.000000	11.659475
1626.000000	11.670568
1625.000000	11.587267
1624.000000	11.522561
1623.000000	11.546464
1622.000000	11.545161
1621.000000	11.538809
1620.000000	11.622084
1619.000000	11.594606
1618.000000	11.583025
1617.000000	11.649117
1616.000000	11.662429
1615.000000	11.589001
1614.000000	11.487962
1613.000000	11.495689
1612.000000	11.592951
1611.000000	11.626768
1610.000000	11.589588
1609.000000	11.607294
1608.000000	11.592871
1607.000000	11.552687
1606.000000	11.695506
1605.000000	11.706363
1604.000000	11.703075
1603.000000	11.589855
1602.000000	11.541865
1601.000000	11.493836
1600.000000	11.583985
1599.000000	11.565036
1598.000000	11.522030
1597.000000	11.635445
1596.000000	11.563226
1595.000000	11.610128
1594.000000	11.667102
1593.000000	11.544124
1592.000000	11.578945
1591.000000	11.537800
1590.000000	11.658723
1589.000000	11.553086
1588.000000	11.510309
1587.000000	11.624198
1586.000000	11.543779
1585.000000	11.522879
1584.000000	11.491957
1583.000000	11.563146
1582.000000	11.491613
1581.000000	11.493519
1580.000000	11.514418
1579.000000	11.547660
1578.000000	11.618044
1577.000000	11.541360
1576.000000	11.562374
1575.000000	11.508587
1574.000000	11.425389
1573.000000	11.513252
1572.000000	11.537056
1571.000000	11.475299
1570.000000	11.583772
1569.000000	11.543035
1568.000000	11.520650
1567.000000	11.572495
1566.000000	11.584465
1565.000000	11.579105
1564.000000	11.594419
1563.000000	11.562480
1562.000000	11.552314
1561.000000	11.429152
1560.000000	11.501858
1559.000000	11.510124
1558.000000	11.567353
1557.000000	11.529487
1556.000000	11.582412
1555.000000	11.623342
1554.000000	11.637535
1553.000000	11.661059
1552.000000	11.620853
1551.000000	11.609112
1550.000000	11.622244
1549.000000	11.555800
1548.000000	11.608444
1547.000000	11.690255
1546.000000	11.575213
1545.000000	11.616626
1544.000000	11.568179
1543.000000	11.394572
1542.000000	11.491904
1541.000000	11.699222
1540.000000	11.537800
1539.000000	11.586093
1538.000000	11.507050
1537.000000	11.554682
1536.000000	11.491163
1535.000000	11.607161
1534.000000	11.531611
1533.000000	11.352931
1532.000000	11.606653
1531.000000	11.456818
1530.000000	11.529620
1529.000000	11.581932
1528.000000	11.606306
1527.000000	11.515903
1526.000000	11.660281
1525.000000	11.587427
1524.000000	11.554549
1523.000000	11.443213
1522.000000	11.412269
1521.000000	11.481642
1520.000000	11.569458
1519.000000	11.575960
1518.000000	11.608310
1517.000000	11.601897
1516.000000	11.645094
1515.000000	11.633998
1514.000000	11.548937
1513.000000	11.626500
1512.000000	11.533098
1511.000000	11.483731
1510.000000	11.572895
1509.000000	11.503500
1508.000000	11.465474
1507.000000	11.550453
1506.000000	11.447325
1505.000000	11.677208
1504.000000	11.725598
1503.000000	11.573108
1502.000000	11.582972
1501.000000	11.531957
1500.000000	11.639545
1499.000000	11.572335
1498.000000	11.512244
1497.000000	11.649331
1496.000000	11.511741
1495.000000	11.506732
1494.000000	11.502361
1493.000000	11.563652
1492.000000	11.652390
1491.000000	11.597063
1490.000000	11.610475
1489.000000	11.545108
1488.000000	11.561602
1487.000000	11.530364
1486.000000	11.525639
1485.000000	11.586279
1484.000000	11.507580
1483.000000	11.594713
1482.000000	11.609272
1481.000000	11.624894
1480.000000	11.577212
1479.000000	11.640376
1478.000000	11.608845
1477.000000	11.568632
1476.000000	11.566102
1475.000000	11.674116
1474.000000	11.721117
1473.000000	11.625510
1472.000000	11.651880
1471.000000	11.681403
1470.000000	11.636034
1469.000000	11.741484
1468.000000	11.695236
1467.000000	11.730459
1466.000000	11.546517
1465.000000	11.560430
1464.000000	11.624198
1463.000000	11.570257
1462.000000	11.588707
1461.000000	11.631079
1460.000000	11.658965
1459.000000	11.644102
1458.000000	11.629070
1457.000000	11.566661
1456.000000	11.621709
1455.000000	11.694267
1454.000000	11.599413
1453.000000	11.708628
1452.000000	11.675568
1451.000000	11.681752
1450.000000	11.612240
1449.000000	11.602725
1448.000000	11.557050
1447.000000	11.631909
1446.000000	11.574973
1445.000000	11.657515
1444.000000	11.656576
1443.000000	11.650860
1442.000000	11.667156
1441.000000	11.639143
1440.000000	11.682775
1439.000000	11.681537
1438.000000	11.650699
1437.000000	11.691440
1436.000000	11.607000
1435.000000	11.637455
1434.000000	11.673605
1433.000000	11.709895
1432.000000	11.582118
1431.000000	11.627571
1430.000000	11.626795
1429.000000	11.627571
1428.000000	11.655771
1427.000000	11.668069
1426.000000	11.713670
1425.000000	11.644263
1424.000000	11.591296
1423.000000	11.614379
1422.000000	11.675137
1421.000000	11.690525
1420.000000	11.682721
1419.000000	11.683044
1418.000000	11.665759
1417.000000	11.695667
1416.000000	11.703695
1415.000000	11.710866
1414.000000	11.742431
1413.000000	11.749625
1412.000000	11.762293
1411.000000	11.773620
1410.000000	11.745513
1409.000000	11.690901
1408.000000	11.682748
1407.000000	11.688506
1406.000000	11.716827
1405.000000	11.772969
1404.000000	11.809269
1403.000000	11.829925
1402.000000	11.811635
1401.000000	11.789218
1400.000000	11.789517
1399.000000	11.761887
1398.000000	11.731053
1397.000000	11.710461
1396.000000	11.693863
1395.000000	11.711675
1394.000000	11.758746
1393.000000	11.809486
1392.000000	11.849718
1391.000000	11.845353
1390.000000	11.740322
1389.000000	11.682882
1388.000000	11.756039
1387.000000	11.761589
1386.000000	11.738727
1385.000000	11.706363
1384.000000	11.675137
1383.000000	11.676589
1382.000000	11.725031
1381.000000	11.768714
1380.000000	11.804375
1379.000000	11.854957
1378.000000	11.820014
1377.000000	11.783844
1376.000000	11.835456
1375.000000	11.829925
1374.000000	11.805816
1373.000000	11.802717
1372.000000	11.789870
1371.000000	11.771587
1370.000000	11.735862
1369.000000	11.737538
1368.000000	11.780535
1367.000000	11.750328
1366.000000	11.772725
1365.000000	11.803043
1364.000000	11.863122
1363.000000	11.872413
1362.000000	11.849827
1361.000000	11.786178
1360.000000	11.756878
1359.000000	11.721954
1358.000000	11.824397
1357.000000	11.814436
1356.000000	11.809649
1355.000000	11.780860
1354.000000	11.851055
1353.000000	11.814191
1352.000000	11.787888
1351.000000	11.810846
1350.000000	11.790358
1349.000000	11.815116
1348.000000	11.831069
1347.000000	11.860172
1346.000000	11.849745
1345.000000	11.860282
1344.000000	11.787807
1343.000000	11.784034
1342.000000	11.769689
1341.000000	11.722952
1340.000000	11.760100
1339.000000	11.781620
1338.000000	11.848790
1337.000000	11.816150
1336.000000	11.825595
1335.000000	11.806387
1334.000000	11.747704
1333.000000	11.751302
1332.000000	11.727137
1331.000000	11.804919
1330.000000	11.851791
1329.000000	11.835156
1328.000000	11.824234
1327.000000	11.844725
1326.000000	11.859408
1325.000000	11.806523
1324.000000	11.818735
1323.000000	11.733268
1322.000000	11.815987
1321.000000	11.850127
1320.000000	11.834502
1319.000000	11.782352
1318.000000	11.814790
1317.000000	11.783437
1316.000000	11.755822
1315.000000	11.779911
1314.000000	11.806713
1313.000000	11.748218
1312.000000	11.776494
1311.000000	11.777524
1310.000000	11.817973
1309.000000	11.775355
1308.000000	11.835184
1307.000000	11.801521
1306.000000	11.885214
1305.000000	11.890579
1304.000000	11.857769
1303.000000	11.800272
1302.000000	11.801793
1301.000000	11.744540
1300.000000	11.815361
1299.000000	11.832867
1298.000000	11.856159
1297.000000	11.823716
1296.000000	11.896686
1295.000000	11.833276
1294.000000	11.788675
1293.000000	11.840690
1292.000000	11.881164
1291.000000	11.903344
1290.000000	11.841671
1289.000000	11.806441
1288.000000	11.807093
1287.000000	11.821157
1286.000000	11.838182
1285.000000	11.848463
1284.000000	11.862931
1283.000000	11.813294
1282.000000	11.850181
1281.000000	11.865526
1280.000000	11.936170
1279.000000	11.836655
1278.000000	11.863750
1277.000000	11.910199
1276.000000	11.949590
1275.000000	11.868477
1274.000000	11.844125
1273.000000	11.855176
1272.000000	11.874600
1271.000000	11.866756
1270.000000	11.814899
1269.000000	11.911734
1268.000000	11.929109
1267.000000	11.911680
1266.000000	11.903344
1265.000000	11.916508
1264.000000	11.902824
1263.000000	11.921722
1262.000000	11.918237
1261.000000	11.910857
1260.000000	11.968232
1259.000000	11.984971
1258.000000	11.912201
1257.000000	11.989388
1256.000000	11.997009
1255.000000	11.930098
1254.000000	11.902248
1253.000000	11.902029
1252.000000	11.933642
1251.000000	11.926280
1250.000000	12.008064
1249.000000	11.942878
1248.000000	11.956333
1247.000000	11.950498
1246.000000	11.963768
1245.000000	11.939881
1244.000000	11.898549
1243.000000	11.959031
1242.000000	11.950140
1241.000000	11.931636
1240.000000	11.972532
1239.000000	11.971484
1238.000000	11.947224
1237.000000	12.005935
1236.000000	11.961592
1235.000000	11.975840
1234.000000	11.997893
1233.000000	11.956581
1232.000000	11.979646
1231.000000	11.962006
1230.000000	11.945408
1229.000000	12.014121
1228.000000	12.014564
1227.000000	12.012710
1226.000000	12.005327
1225.000000	12.058797
1224.000000	11.998971
1223.000000	11.985303
1222.000000	11.982709
1221.000000	11.998197
1220.000000	11.991928
1219.000000	11.994744
1218.000000	12.065658
1217.000000	12.033584
1216.000000	12.048861
1215.000000	12.021205
1214.000000	11.999634
1213.000000	11.993861
1212.000000	12.027767
1211.000000	12.077666
1210.000000	12.068575
1209.000000	12.037630
1208.000000	11.994468
1207.000000	11.990934
1206.000000	12.011051
1205.000000	12.037935
1204.000000	12.043231
1203.000000	12.066269
1202.000000	12.086735
1201.000000	12.080057
1200.000000	12.109996
1199.000000	12.115156
1198.000000	12.105619
1197.000000	12.077304
1196.000000	12.062158
1195.000000	12.017192
1194.000000	12.026105
1193.000000	12.095756
1192.000000	12.065991
1191.000000	12.066602
1190.000000	12.101299
1189.000000	12.111418
1188.000000	12.072383
1187.000000	12.065658
1186.000000	12.057021
1185.000000	12.065630
1184.000000	12.032254
1183.000000	12.061963
1182.000000	12.119648
1181.000000	12.149293
1180.000000	12.125621
1179.000000	12.122802
1178.000000	12.127939
1177.000000	12.112394
1176.000000	12.119341
1175.000000	12.147307
1174.000000	12.145685
1173.000000	12.155253
1172.000000	12.155225
1171.000000	12.118476
1170.000000	12.130760
1169.000000	12.113873
1168.000000	12.109160
1167.000000	12.099878
1166.000000	12.121657
1165.000000	12.166005
1164.000000	12.170180
1163.000000	12.155533
1162.000000	12.207339
1161.000000	12.193433
1160.000000	12.126263
1159.000000	12.135090
1158.000000	12.131458
1157.000000	12.104309
1156.000000	12.131793
1155.000000	12.161020
1154.000000	12.139897
1153.000000	12.144874
1152.000000	12.167742
1151.000000	12.201157
1150.000000	12.180357
1149.000000	12.209082
1148.000000	12.237142
1147.000000	12.205737
1146.000000	12.192535
1145.000000	12.184312
1144.000000	12.167798
1143.000000	12.166257
1142.000000	12.240496
1141.000000	12.229790
1140.000000	12.215859
1139.000000	12.250674
1138.000000	12.210853
1137.000000	12.233198
1136.000000	12.256628
1135.000000	12.254229
1134.000000	12.249292
1133.000000	12.220557
1132.000000	12.208435
1131.000000	12.212737
1130.000000	12.221711
1129.000000	12.244470
1128.000000	12.307674
1127.000000	12.276088
1126.000000	12.302744
1125.000000	12.332326
1124.000000	12.279339
1123.000000	12.208801
1122.000000	12.236381
1121.000000	12.245824
1120.000000	12.249180
1119.000000	12.309743
1118.000000	12.275664
1117.000000	12.239340
1116.000000	12.210459
1115.000000	12.241172
1114.000000	12.281913
1113.000000	12.278774
1112.000000	12.306088
1111.000000	12.244273
1110.000000	12.251436
1109.000000	12.313060
1108.000000	12.343406
1107.000000	12.302234
1106.000000	12.279283
1105.000000	12.361495
1104.000000	12.312493
1103.000000	12.312153
1102.000000	12.323612
1101.000000	12.403207
1100.000000	12.400266
1099.000000	12.333689
1098.000000	12.395213
1097.000000	12.355064
1096.000000	12.355861
1095.000000	12.420355
1094.000000	12.308043
1093.000000	12.333348
1092.000000	12.390305
1091.000000	12.346760
1090.000000	12.376105
1089.000000	12.341871
1088.000000	12.310792
1087.000000	12.355434
1086.000000	12.364313
1085.000000	12.414836
1084.000000	12.439044
1083.000000	12.460286
1082.000000	12.456098
1081.000000	12.479294
1080.000000	12.420927
1079.000000	12.417009
1078.000000	12.420412
1077.000000	12.418353
1076.000000	12.398125
1075.000000	12.341729
1074.000000	12.437440
1073.000000	12.526825
1072.000000	12.510394
1071.000000	12.478863
1070.000000	12.458364
1069.000000	12.434462
1068.000000	12.418782
1067.000000	12.478432
1066.000000	12.493669
1065.000000	12.535163
1064.000000	12.481133
1063.000000	12.433460
1062.000000	12.395156
1061.000000	12.315045
1060.000000	12.433288
1059.000000	12.568950
1058.000000	12.580908
1057.000000	12.609243
1056.000000	12.488463
1055.000000	12.516733
1054.000000	12.609272
1053.000000	12.549690
1052.000000	12.623884
1051.000000	12.471279
1050.000000	12.543681
1049.000000	12.464504
1048.000000	12.488665
1047.000000	12.614034
1046.000000	12.590356
1045.000000	12.595401
1044.000000	12.698049
1043.000000	12.591051
1042.000000	12.634469
1041.000000	12.481593
1040.000000	12.517771
1039.000000	12.552089
1038.000000	12.529767
1037.000000	12.669924
1036.000000	12.600768
1035.000000	12.593951
1034.000000	12.587515
1033.000000	12.437612
1032.000000	12.371433
1031.000000	12.563366
1030.000000	12.557090
1029.000000	12.665169
1028.000000	12.497525
1027.000000	12.657152
1026.000000	12.680810
1025.000000	12.587834
1024.000000	12.643258
1023.000000	12.666278
1022.000000	12.677482
1021.000000	12.628710
1020.000000	12.598882
1019.000000	12.597257
1018.000000	12.677686
1017.000000	12.677015
1016.000000	12.672725
1015.000000	12.612930
1014.000000	12.633451
1013.000000	12.571092
1012.000000	12.697055
1011.000000	12.745181
1010.000000	12.720583
1009.000000	12.581459
1008.000000	12.679525
1007.000000	12.745269
1006.000000	12.726881
1005.000000	12.701909
1004.000000	12.693723
1003.000000	12.719821
1002.000000	12.810557
1001.000000	12.825225
1000.000000	12.806546
999.000000	12.698517
998.000000	12.723248
997.000000	12.816753
996.000000	12.719733
995.000000	12.652548
994.000000	12.763977
993.000000	12.703898
992.000000	12.628071
991.000000	12.763506
990.000000	12.849582
989.000000	12.991042
988.000000	12.972450
987.000000	12.889646
986.000000	12.924745
985.000000	12.828238
984.000000	12.897900
983.000000	12.734620
982.000000	12.755897
981.000000	12.863259
980.000000	12.857780
979.000000	12.809672
978.000000	12.661029
977.000000	12.922008
976.000000	13.005169
975.000000	12.853311
974.000000	12.935702
973.000000	12.959015
972.000000	13.045028
971.000000	12.888756
970.000000	12.925400
969.000000	12.913323
968.000000	12.875112
967.000000	12.991820
966.000000	12.937191
965.000000	12.925966
964.000000	12.902771
963.000000	12.899771
962.000000	12.852541
961.000000	12.823306
960.000000	12.886975
959.000000	12.840502
958.000000	12.863940
957.000000	12.908120
956.000000	12.911420
955.000000	13.087449
954.000000	13.106327
953.000000	13.130311
952.000000	12.983566
951.000000	12.890091
950.000000	13.050676
949.000000	13.267833
948.000000	13.007445
947.000000	12.861156
946.000000	12.999900
945.000000	12.858757
944.000000	12.958836
943.000000	13.188457
942.000000	13.230797
941.000000	13.167005
940.000000	12.842808
939.000000	12.974033
938.000000	12.965731
937.000000	12.850174
936.000000	12.968179
935.000000	13.077568
934.000000	12.960388
933.000000	13.078201
932.000000	13.237928
931.000000	13.326037
930.000000	13.219438
929.000000	13.210218
928.000000	13.275198
927.000000	13.048242
926.000000	12.894990
925.000000	13.124567
924.000000	13.311255
923.000000	13.208333
922.000000	13.158791
921.000000	13.124567
920.000000	13.329136
919.000000	13.353589
918.000000	13.086394
917.000000	13.188427
916.000000	13.113240
915.000000	13.176498
914.000000	13.630852
913.000000	13.610121
912.000000	13.330118
911.000000	13.434732
910.000000	13.587733
909.000000	13.259953
908.000000	13.294500
907.000000	13.535927
906.000000	13.506101
905.000000	13.311316
904.000000	13.569411
903.000000	13.594806
902.000000	13.497987
901.000000	13.478451
900.000000	13.257481
899.000000	13.664917
898.000000	13.636157
897.000000	13.492362
896.000000	13.715353
895.000000	13.430989
894.000000	13.629722
893.000000	13.471377
892.000000	13.031248
891.000000	13.107534
890.000000	13.491430
889.000000	14.147151
888.000000	13.631637
887.000000	13.428299
886.000000	13.110311
885.000000	12.958508
884.000000	13.386530
883.000000	13.452376
882.000000	13.573474
881.000000	13.408093
880.000000	13.725621
879.000000	13.252231
878.000000	13.538421
877.000000	13.371250
876.000000	13.391616
875.000000	13.884077
874.000000	13.963523
873.000000	14.040223
872.000000	14.774167
871.000000	14.321615
870.000000	13.623980
869.000000	13.934648
868.000000	14.099899
867.000000	13.242805
866.000000	12.362719
865.000000	11.826929
864.000000	11.824397
863.000000	13.463222
862.000000	13.922525
861.000000	13.371034
860.000000	13.016254
859.000000	12.972360
858.000000	12.695564
857.000000	12.496719
856.000000	12.894040
855.000000	13.095920
854.000000	13.188731
853.000000	13.096221
852.000000	12.872948
851.000000	12.873214
850.000000	12.927752
849.000000	12.921651
848.000000	12.796789
847.000000	13.040583
846.000000	12.993944
845.000000	12.992389
844.000000	13.113662
843.000000	13.140715
842.000000	13.088895
841.000000	13.083140
840.000000	13.214995
839.000000	13.123872
838.000000	13.272478
837.000000	13.221660
836.000000	13.242287
835.000000	13.325300
834.000000	13.402629
833.000000	13.380089
832.000000	13.327417
831.000000	13.337087
830.000000	13.382954
829.000000	13.379504
828.000000	13.392449
827.000000	13.308711
826.000000	13.416307
825.000000	13.439868
824.000000	13.352943
823.000000	13.387485
822.000000	13.498702
821.000000	13.538670
820.000000	13.496868
819.000000	13.466911
818.000000	13.450796
817.000000	13.516928
816.000000	13.440920
815.000000	13.452159
814.000000	13.515839
813.000000	13.591676
812.000000	13.619119
811.000000	13.618680
810.000000	13.625988
809.000000	13.628655
808.000000	13.620153
807.000000	13.717280
806.000000	13.632892
805.000000	13.590173
804.000000	13.632610
803.000000	13.673163
802.000000	13.746337
801.000000	13.709354
800.000000	13.698878
799.000000	13.736181
798.000000	13.733777
797.000000	13.704273
796.000000	13.758529
795.000000	13.802031
794.000000	13.758497
793.000000	13.779517
792.000000	13.771873
791.000000	13.748712
790.000000	13.763123
789.000000	13.829421
788.000000	13.762141
787.000000	13.777772
786.000000	13.863663
785.000000	13.851283
784.000000	13.841973
783.000000	13.869953
782.000000	13.913936
781.000000	13.936349
780.000000	13.868069
779.000000	13.832160
778.000000	13.949993
777.000000	13.959022
776.000000	13.986176
775.000000	13.973815
774.000000	13.968282
773.000000	13.935225
772.000000	13.959279
771.000000	13.984148
770.000000	13.956451
769.000000	13.999032
768.000000	13.943571
767.000000	13.974298
766.000000	13.988044
765.000000	14.047822
764.000000	13.979705
763.000000	14.018773
762.000000	14.006609
761.000000	13.991588
760.000000	13.999354
759.000000	13.990138
758.000000	14.016481
757.000000	14.022486
756.000000	14.009996
755.000000	13.968861
754.000000	13.977001
753.000000	13.913071
752.000000	13.881647
751.000000	13.880081
750.000000	13.877461
749.000000	13.859418
748.000000	13.793421
747.000000	13.791039
746.000000	13.850613
745.000000	13.801268
744.000000	13.742888
743.000000	13.724294
742.000000	13.705661
741.000000	13.661771
740.000000	13.635529
739.000000	13.632798
738.000000	13.593115
737.000000	13.557231
736.000000	13.535927
735.000000	13.536020
734.000000	13.500505
733.000000	13.496122
732.000000	13.498671
731.000000	13.468586
730.000000	13.433680
729.000000	13.410779
728.000000	13.365093
727.000000	13.353220
726.000000	13.322478
725.000000	13.329167
724.000000	13.291163
723.000000	13.284769
722.000000	13.287583
721.000000	13.273700
720.000000	13.303013
719.000000	13.293612
718.000000	13.244361
717.000000	13.238933
716.000000	13.256412
715.000000	13.238629
714.000000	13.250797
713.000000	13.272753
712.000000	13.295357
711.000000	13.307424
710.000000	13.319502
709.000000	13.338408
708.000000	13.370141
707.000000	13.407074
706.000000	13.398309
705.000000	13.454235
704.000000	13.465950
703.000000	13.502308
702.000000	13.527701
701.000000	13.555171
700.000000	13.577068
699.000000	13.584386
698.000000	13.619369
697.000000	13.660418
696.000000	13.717280
695.000000	13.745166
694.000000	13.781675
693.000000	13.802158
692.000000	13.839870
691.000000	13.865866
690.000000	13.902215
689.000000	13.909195
688.000000	13.954555
687.000000	13.971467
686.000000	13.989590
685.000000	14.016772
684.000000	14.045623
683.000000	14.060929
682.000000	14.077353
681.000000	14.119230
680.000000	14.127717
679.000000	14.158785
678.000000	14.207904
677.000000	14.197994
676.000000	14.221552
675.000000	14.233575
674.000000	14.234460
673.000000	14.290025
672.000000	14.310440
671.000000	14.306355
670.000000	14.326002
669.000000	14.351457
668.000000	14.374806
667.000000	14.370206
666.000000	14.371563
665.000000	14.401642
664.000000	14.431351
663.000000	14.426002
662.000000	14.397994
661.000000	14.408342
660.000000	14.420987
659.000000	14.463786
658.000000	14.471815
657.000000	14.448708
656.000000	14.439561
655.000000	14.442188
654.000000	14.439694
653.000000	14.436470
652.000000	14.453266
651.000000	14.462354
650.000000	14.450038
649.000000	14.441590
648.000000	14.448774
647.000000	14.474614
646.000000	14.477281
645.000000	14.491155
644.000000	14.488452
643.000000	14.480148
642.000000	14.508583
641.000000	14.527102
640.000000	14.538279
639.000000	14.558043
638.000000	14.561966
637.000000	14.565151
636.000000	14.584549
635.000000	14.593350
634.000000	14.616689
633.000000	14.643571
632.000000	14.650890
631.000000	14.677801
630.000000	14.687978
629.000000	14.707471
628.000000	14.720210
627.000000	14.731535
626.000000	14.773521
625.000000	14.784921
624.000000	14.788291
623.000000	14.824566
622.000000	14.837031
621.000000	14.827741
620.000000	14.852515
619.000000	14.883943
618.000000	14.898996
617.000000	14.918357
616.000000	14.927944
615.000000	14.942594
614.000000	14.979213
613.000000	14.986665
612.000000	15.017305
611.000000	15.046414
610.000000	15.066834
609.000000	15.108453
608.000000	15.119868
607.000000	15.141190
606.000000	15.172739
605.000000	15.195325
604.000000	15.214091
603.000000	15.244564
602.000000	15.267643
601.000000	15.304565
600.000000	15.346276
599.000000	15.368164
598.000000	15.401889
597.000000	15.434551
596.000000	15.467923
595.000000	15.494337
594.000000	15.503473
593.000000	15.534776
592.000000	15.549377
591.000000	15.576397
590.000000	15.583105
589.000000	15.602637
588.000000	15.607991
587.000000	15.606517
586.000000	15.643142
585.000000	15.629893
584.000000	15.625683
583.000000	15.614173
582.000000	15.598111
581.000000	15.563419
580.000000	15.547516
579.000000	15.520761
578.000000	15.469882
577.000000	15.413171
576.000000	15.366926
575.000000	15.323113
574.000000	15.248601
573.000000	15.183259
572.000000	15.133591
571.000000	15.108418
570.000000	15.084538
569.000000	15.054003
568.000000	15.026367
567.000000	15.058302
566.000000	15.082002
565.000000	15.088845
564.000000	15.116665
563.000000	15.141643
562.000000	15.181196
561.000000	15.237580
560.000000	15.282732
559.000000	15.316799
558.000000	15.379032
557.000000	15.415514
556.000000	15.456138
555.000000	15.509507
554.000000	15.563347
553.000000	15.610650
552.000000	15.639937
551.000000	15.673356
550.000000	15.749762
549.000000	15.778583
548.000000	15.822605
547.000000	15.844772
546.000000	15.885467
545.000000	15.930375
544.000000	15.962356
543.000000	16.000037
542.000000	16.042055
541.000000	16.067822
540.000000	16.088850
539.000000	16.130618
538.000000	16.158573
537.000000	16.183744
536.000000	16.196531
535.000000	16.222247
534.000000	16.246095
533.000000	16.258857
532.000000	16.296862
531.000000	16.308687
530.000000	16.325820
529.000000	16.341842
528.000000	16.363116
527.000000	16.355431
526.000000	16.395286
525.000000	16.413606
524.000000	16.426915
523.000000	16.442960
522.000000	16.471077
521.000000	16.481624
520.000000	16.514065
519.000000	16.523727
518.000000	16.544171
517.000000	16.559949
516.000000	16.564526
515.000000	16.582271
514.000000	16.582194
513.000000	16.574216
512.000000	16.553621
511.000000	16.565593
510.000000	16.563305
509.000000	16.544780
508.000000	16.527874
507.000000	16.544133
506.000000	16.471722
505.000000	16.518705
504.000000	16.476350
503.000000	16.452201
502.000000	16.434481
501.000000	16.429941
500.000000	16.436865
499.000000	16.434216
498.000000	16.435844
497.000000	16.451026
496.000000	16.477071
495.000000	16.471343
494.000000	16.464783
493.000000	16.467854
492.000000	16.486368
491.000000	16.474680
490.000000	16.529739
489.000000	16.551372
488.000000	16.550534
487.000000	16.551067
486.000000	16.580324
485.000000	16.595678
484.000000	16.601984
483.000000	16.632288
482.000000	16.618928
481.000000	16.660307
480.000000	16.689180
479.000000	16.706366
478.000000	16.755060
477.000000	16.765326
476.000000	16.791984
475.000000	16.815702
474.000000	16.849111
473.000000	16.881693
472.000000	16.890364
471.000000	16.931756
470.000000	16.977041
469.000000	16.981224
468.000000	16.998516
467.000000	17.050260
466.000000	17.083191
465.000000	17.090509
464.000000	17.119931
463.000000	17.136535
462.000000	17.156117
461.000000	17.189174
460.000000	17.226300
459.000000	17.240426
458.000000	17.262790
457.000000	17.274799
456.000000	17.316894
455.000000	17.338359
454.000000	17.337721
453.000000	17.353657
452.000000	17.374447
451.000000	17.409809
450.000000	17.412134
449.000000	17.435524
448.000000	17.436728
447.000000	17.486706
446.000000	17.497339
445.000000	17.498507
444.000000	17.510720
443.000000	17.527703
442.000000	17.521892
441.000000	17.544460
440.000000	17.567623
439.000000	17.575189
438.000000	17.608161
437.000000	17.625320
436.000000	17.677913
435.000000	17.690210
434.000000	17.679867
433.000000	17.718257
432.000000	17.741772
431.000000	17.736462
430.000000	17.773338
429.000000	17.833147
428.000000	17.828590
427.000000	17.856198
426.000000	17.896537
425.000000	17.905605
424.000000	17.922063
423.000000	17.955521
422.000000	17.977902
421.000000	17.989165
420.000000	18.021835
419.000000	18.072241
418.000000	18.094601
417.000000	18.118323
416.000000	18.143455
415.000000	18.179042
414.000000	18.183438
413.000000	18.186830
412.000000	18.203840
411.000000	18.201492
410.000000	18.208451
409.000000	18.220781
408.000000	18.199355
407.000000	18.133599
406.000000	18.061757
405.000000	17.986928
404.000000	17.860146
403.000000	17.689885
402.000000	17.502738
401.000000	17.331614
400.000000	17.082090
399.000000	16.805754
398.000000	16.495064
397.000000	16.169180
396.000000	15.820128
395.000000	15.389907
394.000000	14.958016
393.000000	14.550235
392.000000	14.080984
391.000000	13.587264
390.000000	13.142198
389.000000	12.714375
388.000000	12.271199
387.000000	11.855858
386.000000	11.477333
385.000000	11.134917
384.000000	10.792126
383.000000	10.480596
382.000000	10.203120
381.000000	9.939671
380.000000	9.694937
379.000000	9.417161
378.000000	9.156553
377.000000	8.950803
376.000000	8.767020
375.000000	8.607618
374.000000	8.442032
373.000000	8.297036
372.000000	8.192152
371.000000	8.049761
370.000000	7.929595
369.000000	7.834170
368.000000	7.730205
367.000000	7.633997
366.000000	7.495748
365.000000	7.410713
364.000000	7.336620
363.000000	7.244026
362.000000	7.179679
361.000000	7.123657
360.000000	7.052710
359.000000	6.997792
358.000000	6.943877
357.000000	6.885540
356.000000	6.831892
355.000000	6.763087
354.000000	6.732215
353.000000	6.692248
352.000000	6.649975
351.000000	6.637813
350.000000	6.630374
349.000000	6.618750
348.000000	6.613708
347.000000	6.599803
346.000000	6.583851
345.000000	6.580244
344.000000	6.583730
343.000000	6.565155
342.000000	6.590479
341.000000	6.606722
340.000000	6.570721
339.000000	6.592088
338.000000	6.652211
337.000000	6.645077
336.000000	6.645413
335.000000	6.678363
334.000000	6.724067
333.000000	6.746476
332.000000	6.703938
331.000000	6.726730
330.000000	6.777305
329.000000	6.787424
328.000000	6.863932
327.000000	6.863932
326.000000	6.889949
325.000000	6.888109
324.000000	6.913516
323.000000	6.949923
322.000000	6.962032
321.000000	6.965463
320.000000	7.007369
319.000000	7.012777
318.000000	6.968672
317.000000	6.970967
316.000000	6.966698
315.000000	6.995955
314.000000	7.010371
313.000000	6.988613
312.000000	6.999532
311.000000	6.972363
310.000000	6.994876
309.000000	6.990512
308.000000	6.975832
307.000000	6.979913
306.000000	7.026208
305.000000	7.033249
304.000000	6.981745
303.000000	6.978836
302.000000	6.956535
301.000000	6.949619
300.000000	6.903034
299.000000	6.924605
298.000000	6.881514
297.000000	6.823167
296.000000	6.832521
295.000000	6.847326
294.000000	6.759709
293.000000	6.746538
292.000000	6.719207
291.000000	6.705822
290.000000	6.669465
289.000000	6.672122
288.000000	6.646653
287.000000	6.736619
286.000000	6.659843
285.000000	6.653927
284.000000	6.606509
283.000000	6.591071
282.000000	6.614865
281.000000	6.603680
280.000000	6.567151
279.000000	6.588810
278.000000	6.591511
277.000000	6.559262
276.000000	6.551896
275.000000	6.508801
274.000000	6.515729
273.000000	6.493727
272.000000	6.507722
271.000000	6.517079
270.000000	6.484552
269.000000	6.510810
268.000000	6.435629
267.000000	6.464188
266.000000	6.460796
265.000000	6.401548
264.000000	6.429852
263.000000	6.425220
262.000000	6.400089
261.000000	6.401268
260.000000	6.360804
259.000000	6.345385
258.000000	6.368087
257.000000	6.342318
256.000000	6.327600
255.000000	6.318893
254.000000	6.298310
253.000000	6.313744
252.000000	6.245195
251.000000	6.248964
250.000000	6.255903
249.000000	6.220353
248.000000	6.225325
247.000000	6.251281
246.000000	6.252807
245.000000	6.207918
244.000000	6.245281
243.000000	6.200790
242.000000	6.205217
241.000000	6.219579
240.000000	6.228952
239.000000	6.198449
238.000000	6.261927
237.000000	6.219651
236.000000	6.229440
235.000000	6.225898
234.000000	6.262187
233.000000	6.260730
232.000000	6.244375
231.000000	6.282854
230.000000	6.296338
229.000000	6.270252
228.000000	6.315824
227.000000	6.339266
226.000000	6.356997
225.000000	6.375144
224.000000	6.402344
223.000000	6.441025
222.000000	6.426182
221.000000	6.480328
220.000000	6.433555
219.000000	6.497600
218.000000	6.531546
217.000000	6.583336
216.000000	6.547462
215.000000	6.609065
214.000000	6.648490
213.000000	6.631992
212.000000	6.627138
211.000000	6.639525
210.000000	6.671354
209.000000	6.768665
208.000000	6.706300
207.000000	6.699417
206.000000	6.791692
205.000000	6.819507
204.000000	6.872726
203.000000	6.900142
202.000000	6.968928
201.000000	6.991655
200.000000	7.083502
199.000000	7.270797
198.000000	7.331047
197.000000	7.380793
196.000000	7.386046
195.000000	7.601985
194.000000	7.956132
193.000000	8.358359
192.000000	9.347275
191.000000	10.288570
190.000000	12.907229
189.000000	20.573444
188.000000	38.880335
187.000000	77.502016
186.000000	94.998118
185.000000	97.781794
184.000000	95.389594
183.000000	98.352182
182.000000	94.646160
181.000000	98.905399
180.000000	100.567117
179.000000	105.288030
178.000000	105.173905
177.000000	102.002073
176.000000	102.461804
175.000000	97.797105
