PE UV       SUBTECH     SPECTRUM    ASCII       PEDS        4.00        
   -1
Sample4.Sample.Raw.ASC
25/05/30
11:47:19.00
25/06/06
09:00:45.00
tom jordan
CISRO R2
175.000000
1
Lambda 1050
1050L1807051
PerkinElmer UV WinLab 6.4.0.973 / 2.02.06 Lambda 900 UV/VIS/NIR, Jan 28 2016 16:58:34

0
0
3350
0
0
UV/VIS
1
1
1
RBeamAtt,SBeamAtt,150mm sphere / downward view, WB InGaAs Detector
0
0
0
0
Program
Program
3350
3350
3350
0
1
 
 
 
0
 
860.8
319.2
860.8
Front
100
 
S:100 R:100
0
0
0
0
 
0
 
 
 
0
 
 
0
0
0
0
0
 
 
 
 
0
0


0
0
#HDR
-1
-1
#GR
nm
%T
1.0
0.0
2000.000000
-1.000000
1826
8
101.895968
6.201946
#DATA
2000.000000	11.544124
1999.000000	11.870582
1998.000000	11.779070
1997.000000	11.711189
1996.000000	11.792720
1995.000000	11.937874
1994.000000	12.182825
1993.000000	11.807800
1992.000000	11.771830
1991.000000	11.648902
1990.000000	11.761291
1989.000000	11.945023
1988.000000	11.763079
1987.000000	11.741728
1986.000000	11.865144
1985.000000	11.752845
1984.000000	11.908526
1983.000000	12.013097
1982.000000	11.782406
1981.000000	11.723330
1980.000000	11.549602
1979.000000	11.607882
1978.000000	11.426047
1977.000000	11.520704
1976.000000	11.729027
1975.000000	11.739943
1974.000000	11.583399
1973.000000	11.669305
1972.000000	11.409195
1971.000000	11.569911
1970.000000	11.629231
1969.000000	11.392420
1968.000000	11.736376
1967.000000	11.791336
1966.000000	11.586066
1965.000000	11.546118
1964.000000	11.585319
1963.000000	11.339633
1962.000000	11.553086
1961.000000	11.149644
1960.000000	11.532249
1959.000000	11.802527
1958.000000	11.771343
1957.000000	11.677342
1956.000000	11.669225
1955.000000	11.666565
1954.000000	11.498786
1953.000000	11.499501
1952.000000	11.699249
1951.000000	12.048112
1950.000000	11.481193
1949.000000	11.655073
1948.000000	11.539872
1947.000000	11.634025
1946.000000	11.770719
1945.000000	11.582758
1944.000000	11.687618
1943.000000	11.567673
1942.000000	11.723573
1941.000000	11.744891
1940.000000	11.562214
1939.000000	11.394073
1938.000000	11.404362
1937.000000	11.566874
1936.000000	11.461884
1935.000000	11.752060
1934.000000	11.499236
1933.000000	11.635767
1932.000000	11.731485
1931.000000	11.769120
1930.000000	11.955149
1929.000000	11.844453
1928.000000	11.338040
1927.000000	11.467744
1926.000000	11.392683
1925.000000	11.756174
1924.000000	11.914971
1923.000000	11.512032
1922.000000	11.600000
1921.000000	11.815007
1920.000000	11.849336
1919.000000	11.858589
1918.000000	11.354421
1917.000000	11.452809
1916.000000	11.716611
1915.000000	11.481589
1914.000000	11.849690
1913.000000	12.045200
1912.000000	11.693001
1911.000000	11.769662
1910.000000	11.970657
1909.000000	12.026576
1908.000000	11.799158
1907.000000	11.703129
1906.000000	11.722547
1905.000000	12.010387
1904.000000	12.297052
1903.000000	11.912201
1902.000000	11.782542
1901.000000	11.890798
1900.000000	11.715100
1899.000000	11.757744
1898.000000	11.838263
1897.000000	11.954791
1896.000000	12.212174
1895.000000	11.960381
1894.000000	11.985661
1893.000000	11.800000
1892.000000	11.596689
1891.000000	11.978819
1890.000000	12.053107
1889.000000	11.912365
1888.000000	11.824778
1887.000000	11.775192
1886.000000	11.666081
1885.000000	11.644665
1884.000000	11.701270
1883.000000	11.955645
1882.000000	12.143755
1881.000000	12.043619
1880.000000	11.885323
1879.000000	11.896522
1878.000000	11.789544
1877.000000	11.940211
1876.000000	11.936857
1875.000000	11.759179
1874.000000	11.928505
1873.000000	11.980364
1872.000000	11.934714
1871.000000	11.823117
1870.000000	11.825078
1869.000000	11.771505
1868.000000	11.847371
1867.000000	11.965201
1866.000000	11.974903
1865.000000	12.031451
1864.000000	11.937572
1863.000000	11.732566
1862.000000	11.901919
1861.000000	12.006571
1860.000000	12.036355
1859.000000	12.006875
1858.000000	11.829190
1857.000000	11.928175
1856.000000	12.005769
1855.000000	11.819552
1854.000000	11.967901
1853.000000	11.977330
1852.000000	11.924989
1851.000000	12.055216
1850.000000	12.058714
1849.000000	11.985965
1848.000000	12.058742
1847.000000	11.934494
1846.000000	11.785093
1845.000000	11.958233
1844.000000	11.974765
1843.000000	11.975840
1842.000000	12.083785
1841.000000	11.844916
1840.000000	11.537109
1839.000000	11.824288
1838.000000	11.696879
1837.000000	11.805082
1836.000000	11.923589
1835.000000	11.798098
1834.000000	11.913188
1833.000000	11.742214
1832.000000	11.837664
1831.000000	11.693028
1830.000000	11.755470
1829.000000	11.880754
1828.000000	11.751411
1827.000000	11.904249
1826.000000	11.738159
1825.000000	11.767332
1824.000000	11.989498
1823.000000	11.830170
1822.000000	11.605076
1821.000000	11.761427
1820.000000	11.774596
1819.000000	11.803179
1818.000000	11.827583
1817.000000	11.655315
1816.000000	11.703965
1815.000000	11.609513
1814.000000	11.619194
1813.000000	11.792612
1812.000000	11.834366
1811.000000	11.614513
1810.000000	11.528372
1809.000000	11.716611
1808.000000	11.690552
1807.000000	11.680327
1806.000000	11.647266
1805.000000	11.693648
1804.000000	11.709059
1803.000000	11.711324
1802.000000	11.580732
1801.000000	11.584786
1800.000000	11.701647
1799.000000	11.587587
1798.000000	11.605344
1797.000000	11.589641
1796.000000	11.646676
1795.000000	11.662187
1794.000000	11.688425
1793.000000	11.631052
1792.000000	11.627143
1791.000000	11.823063
1790.000000	11.543433
1789.000000	11.649385
1788.000000	11.658831
1787.000000	11.674062
1786.000000	11.539261
1785.000000	11.530098
1784.000000	11.794458
1783.000000	11.745513
1782.000000	11.746676
1781.000000	11.824479
1780.000000	11.708520
1779.000000	11.881027
1778.000000	11.784794
1777.000000	11.562028
1776.000000	11.730540
1775.000000	11.846853
1774.000000	11.778582
1773.000000	11.809078
1772.000000	11.692113
1771.000000	11.695479
1770.000000	11.679628
1769.000000	11.777524
1768.000000	11.660710
1767.000000	11.744729
1766.000000	11.906908
1765.000000	11.648151
1764.000000	11.791010
1763.000000	11.736430
1762.000000	11.684846
1761.000000	11.610101
1760.000000	11.676509
1759.000000	11.626580
1758.000000	11.736322
1757.000000	11.893755
1756.000000	11.560058
1755.000000	11.539208
1754.000000	11.795409
1753.000000	11.596929
1752.000000	11.619033
1751.000000	11.830525
1750.000000	11.730378
1749.000000	11.720766
1748.000000	11.655637
1747.000000	11.581425
1746.000000	11.613577
1745.000000	11.694805
1744.000000	11.789870
1743.000000	11.720874
1742.000000	11.806849
1741.000000	11.874436
1740.000000	11.580518
1739.000000	11.799049
1738.000000	11.794947
1737.000000	11.643217
1736.000000	11.693432
1735.000000	11.715478
1734.000000	11.600855
1733.000000	11.620532
1732.000000	11.494180
1731.000000	11.688398
1730.000000	11.842517
1729.000000	11.788485
1728.000000	11.755470
1727.000000	11.611465
1726.000000	11.754306
1725.000000	11.550905
1724.000000	11.478258
1723.000000	11.691224
1722.000000	11.612908
1721.000000	11.678767
1720.000000	11.682640
1719.000000	11.561548
1718.000000	11.662617
1717.000000	11.705312
1716.000000	11.718068
1715.000000	11.603660
1714.000000	11.775653
1713.000000	11.741187
1712.000000	11.668822
1711.000000	11.669251
1710.000000	11.664201
1709.000000	11.633811
1708.000000	11.792639
1707.000000	11.778094
1706.000000	11.608952
1705.000000	11.747975
1704.000000	11.691601
1703.000000	11.665464
1702.000000	11.667801
1701.000000	11.734295
1700.000000	11.696556
1699.000000	11.713563
1698.000000	11.726759
1697.000000	11.585372
1696.000000	11.684685
1695.000000	11.837773
1694.000000	11.678014
1693.000000	11.653087
1692.000000	11.743728
1691.000000	11.717150
1690.000000	11.685169
1689.000000	11.763837
1688.000000	11.739322
1687.000000	11.730783
1686.000000	11.680650
1685.000000	11.686488
1684.000000	11.638473
1683.000000	11.657784
1682.000000	11.655771
1681.000000	11.641582
1680.000000	11.738403
1679.000000	11.753386
1678.000000	11.746757
1677.000000	11.675137
1676.000000	11.686730
1675.000000	11.701728
1674.000000	11.692113
1673.000000	11.712457
1672.000000	11.695694
1671.000000	11.747244
1670.000000	11.745703
1669.000000	11.658455
1668.000000	11.672261
1667.000000	11.721360
1666.000000	11.709922
1665.000000	11.703776
1664.000000	11.779965
1663.000000	11.723762
1662.000000	11.674089
1661.000000	11.780969
1660.000000	11.642199
1659.000000	11.484074
1658.000000	11.611973
1657.000000	11.709167
1656.000000	11.735295
1655.000000	11.785011
1654.000000	11.655315
1653.000000	11.629472
1652.000000	11.734673
1651.000000	11.692759
1650.000000	11.549841
1649.000000	11.608524
1648.000000	11.697229
1647.000000	11.659368
1646.000000	11.628106
1645.000000	11.665061
1644.000000	11.712780
1643.000000	11.696475
1642.000000	11.745026
1641.000000	11.710596
1640.000000	11.616893
1639.000000	11.635177
1638.000000	11.592204
1637.000000	11.540776
1636.000000	11.664631
1635.000000	11.707576
1634.000000	11.663906
1633.000000	11.662053
1632.000000	11.593939
1631.000000	11.623636
1630.000000	11.660442
1629.000000	11.697229
1628.000000	11.672288
1627.000000	11.663583
1626.000000	11.722386
1625.000000	11.636276
1624.000000	11.622860
1623.000000	11.612053
1622.000000	11.600054
1621.000000	11.561229
1620.000000	11.549655
1619.000000	11.613951
1618.000000	11.611946
1617.000000	11.626688
1616.000000	11.560111
1615.000000	11.526621
1614.000000	11.573001
1613.000000	11.662805
1612.000000	11.635338
1611.000000	11.678955
1610.000000	11.641796
1609.000000	11.542450
1608.000000	11.585266
1607.000000	11.663583
1606.000000	11.581692
1605.000000	11.489761
1604.000000	11.611732
1603.000000	11.623502
1602.000000	11.599920
1601.000000	11.689529
1600.000000	11.713347
1599.000000	11.720307
1598.000000	11.649010
1597.000000	11.686891
1596.000000	11.638607
1595.000000	11.584092
1594.000000	11.570443
1593.000000	11.482250
1592.000000	11.619140
1591.000000	11.611518
1590.000000	11.626741
1589.000000	11.596929
1588.000000	11.623529
1587.000000	11.613256
1586.000000	11.494312
1585.000000	11.664738
1584.000000	11.637964
1583.000000	11.541254
1582.000000	11.572122
1581.000000	11.551117
1580.000000	11.534240
1579.000000	11.608470
1578.000000	11.621522
1577.000000	11.642547
1576.000000	11.558647
1575.000000	11.538278
1574.000000	11.571296
1573.000000	11.527019
1572.000000	11.656415
1571.000000	11.617161
1570.000000	11.676455
1569.000000	11.652202
1568.000000	11.646086
1567.000000	11.592577
1566.000000	11.620799
1565.000000	11.670891
1564.000000	11.575986
1563.000000	11.564663
1562.000000	11.694509
1561.000000	11.543699
1560.000000	11.605130
1559.000000	11.528903
1558.000000	11.627169
1557.000000	11.549203
1556.000000	11.585132
1555.000000	11.616118
1554.000000	11.528532
1553.000000	11.619087
1552.000000	11.685761
1551.000000	11.644156
1550.000000	11.571642
1549.000000	11.612454
1548.000000	11.666296
1547.000000	11.541201
1546.000000	11.518025
1545.000000	11.587400
1544.000000	11.559951
1543.000000	11.495451
1542.000000	11.642306
1541.000000	11.571935
1540.000000	11.559286
1539.000000	11.672799
1538.000000	11.615449
1537.000000	11.565755
1536.000000	11.636570
1535.000000	11.539314
1534.000000	11.611144
1533.000000	11.615262
1532.000000	11.720469
1531.000000	11.620558
1530.000000	11.584172
1529.000000	11.511582
1528.000000	11.561921
1527.000000	11.537481
1526.000000	11.566315
1525.000000	11.697525
1524.000000	11.544656
1523.000000	11.604649
1522.000000	11.655744
1521.000000	11.616840
1520.000000	11.524683
1519.000000	11.618151
1518.000000	11.665893
1517.000000	11.528505
1516.000000	11.553778
1515.000000	11.552580
1514.000000	11.570790
1513.000000	11.609647
1512.000000	11.531160
1511.000000	11.663154
1510.000000	11.614941
1509.000000	11.730000
1508.000000	11.687349
1507.000000	11.583719
1506.000000	11.666780
1505.000000	11.643110
1504.000000	11.683797
1503.000000	11.594579
1502.000000	11.660979
1501.000000	11.685061
1500.000000	11.575613
1499.000000	11.617027
1498.000000	11.653060
1497.000000	11.635043
1496.000000	11.537454
1495.000000	11.625617
1494.000000	11.634641
1493.000000	11.610502
1492.000000	11.629606
1491.000000	11.555986
1490.000000	11.558647
1489.000000	11.670971
1488.000000	11.658052
1487.000000	11.547208
1486.000000	11.577506
1485.000000	11.649358
1484.000000	11.677584
1483.000000	11.634347
1482.000000	11.699465
1481.000000	11.733214
1480.000000	11.626313
1479.000000	11.631132
1478.000000	11.639679
1477.000000	11.625697
1476.000000	11.631347
1475.000000	11.706363
1474.000000	11.668257
1473.000000	11.589802
1472.000000	11.609272
1471.000000	11.694132
1470.000000	11.711432
1469.000000	11.623181
1468.000000	11.638500
1467.000000	11.698091
1466.000000	11.620211
1465.000000	11.724005
1464.000000	11.734106
1463.000000	11.696798
1462.000000	11.697095
1461.000000	11.718823
1460.000000	11.728109
1459.000000	11.622806
1458.000000	11.702159
1457.000000	11.728325
1456.000000	11.701566
1455.000000	11.704423
1454.000000	11.759856
1453.000000	11.691655
1452.000000	11.644880
1451.000000	11.680972
1450.000000	11.629178
1449.000000	11.654456
1448.000000	11.718958
1447.000000	11.739646
1446.000000	11.751194
1445.000000	11.646971
1444.000000	11.708439
1443.000000	11.754279
1442.000000	11.716314
1441.000000	11.737457
1440.000000	11.707307
1439.000000	11.682559
1438.000000	11.674573
1437.000000	11.661811
1436.000000	11.715451
1435.000000	11.681322
1434.000000	11.670273
1433.000000	11.733755
1432.000000	11.735592
1431.000000	11.728109
1430.000000	11.724761
1429.000000	11.717582
1428.000000	11.753467
1427.000000	11.788322
1426.000000	11.825078
1425.000000	11.790793
1424.000000	11.737051
1423.000000	11.735700
1422.000000	11.743079
1421.000000	11.679897
1420.000000	11.662831
1419.000000	11.781104
1418.000000	11.750572
1417.000000	11.760073
1416.000000	11.838645
1415.000000	11.777687
1414.000000	11.754496
1413.000000	11.769012
1412.000000	11.748056
1411.000000	11.689690
1410.000000	11.742944
1409.000000	11.831805
1408.000000	11.815116
1407.000000	11.777931
1406.000000	11.788702
1405.000000	11.752358
1404.000000	11.682021
1403.000000	11.717960
1402.000000	11.728703
1401.000000	11.750924
1400.000000	11.746622
1399.000000	11.763295
1398.000000	11.785907
1397.000000	11.722359
1396.000000	11.798098
1395.000000	11.890333
1394.000000	11.844262
1393.000000	11.794295
1392.000000	11.842053
1391.000000	11.828727
1390.000000	11.740051
1389.000000	11.779124
1388.000000	11.788241
1387.000000	11.759666
1386.000000	11.805055
1385.000000	11.836628
1384.000000	11.835374
1383.000000	11.780535
1382.000000	11.836846
1381.000000	11.830170
1380.000000	11.809622
1379.000000	11.822301
1378.000000	11.806223
1377.000000	11.852883
1376.000000	11.800462
1375.000000	11.822382
1374.000000	11.793969
1373.000000	11.744891
1372.000000	11.791146
1371.000000	11.863942
1370.000000	11.811009
1369.000000	11.783437
1368.000000	11.822655
1367.000000	11.816205
1366.000000	11.828890
1365.000000	11.897535
1364.000000	11.861456
1363.000000	11.789815
1362.000000	11.751979
1361.000000	11.816830
1360.000000	11.837391
1359.000000	11.822655
1358.000000	11.869270
1357.000000	11.802744
1356.000000	11.804701
1355.000000	11.871347
1354.000000	11.822437
1353.000000	11.783220
1352.000000	11.769608
1351.000000	11.818708
1350.000000	11.870910
1349.000000	11.822709
1348.000000	11.854684
1347.000000	11.842762
1346.000000	11.817592
1345.000000	11.834203
1344.000000	11.807528
1343.000000	11.847753
1342.000000	11.842844
1341.000000	11.883846
1340.000000	11.857278
1339.000000	11.878073
1338.000000	11.923754
1337.000000	11.852528
1336.000000	11.861975
1335.000000	11.814055
1334.000000	11.827719
1333.000000	11.845707
1332.000000	11.869570
1331.000000	11.895837
1330.000000	11.828645
1329.000000	11.829272
1328.000000	11.852501
1327.000000	11.863395
1326.000000	11.911597
1325.000000	11.854248
1324.000000	11.866810
1323.000000	11.826657
1322.000000	11.891400
1321.000000	11.843498
1320.000000	11.825159
1319.000000	11.829626
1318.000000	11.877034
1317.000000	11.899508
1316.000000	11.876897
1315.000000	11.868887
1314.000000	11.832159
1313.000000	11.803777
1312.000000	11.910253
1311.000000	11.856732
1310.000000	11.845053
1309.000000	11.870336
1308.000000	11.904413
1307.000000	11.851573
1306.000000	11.868860
1305.000000	11.913462
1304.000000	11.859572
1303.000000	11.917935
1302.000000	11.962501
1301.000000	11.812858
1300.000000	11.841671
1299.000000	11.874901
1298.000000	11.879249
1297.000000	11.884174
1296.000000	11.918785
1295.000000	11.888361
1294.000000	11.885186
1293.000000	11.909184
1292.000000	11.867876
1291.000000	11.895289
1290.000000	11.939909
1289.000000	11.911049
1288.000000	11.897946
1287.000000	11.902029
1286.000000	11.955590
1285.000000	11.891400
1284.000000	11.916755
1283.000000	11.921393
1282.000000	11.931416
1281.000000	11.944363
1280.000000	11.951516
1279.000000	11.916727
1278.000000	11.916096
1277.000000	11.961042
1276.000000	11.966937
1275.000000	11.972670
1274.000000	11.999468
1273.000000	11.941008
1272.000000	11.967681
1271.000000	11.905537
1270.000000	12.009696
1269.000000	11.994855
1268.000000	11.934466
1267.000000	11.977523
1266.000000	11.953415
1265.000000	11.983067
1264.000000	11.973579
1263.000000	12.020707
1262.000000	11.950525
1261.000000	11.895946
1260.000000	11.977137
1259.000000	11.923260
1258.000000	11.979922
1257.000000	11.958178
1256.000000	11.947581
1255.000000	11.989250
1254.000000	11.959362
1253.000000	12.011687
1252.000000	11.967543
1251.000000	12.029872
1250.000000	11.992756
1249.000000	11.989940
1248.000000	11.966909
1247.000000	12.013623
1246.000000	11.993364
1245.000000	11.955177
1244.000000	11.984889
1243.000000	12.004802
1242.000000	12.043841
1241.000000	12.041511
1240.000000	12.003392
1239.000000	11.987814
1238.000000	11.988339
1237.000000	12.004139
1236.000000	12.023779
1235.000000	12.052663
1234.000000	12.061852
1233.000000	12.025967
1232.000000	12.079473
1231.000000	12.113315
1230.000000	12.001264
1229.000000	12.058298
1228.000000	12.052635
1227.000000	12.040458
1226.000000	12.034305
1225.000000	12.062102
1224.000000	12.059991
1223.000000	12.080308
1222.000000	12.122774
1221.000000	12.061019
1220.000000	12.039349
1219.000000	12.041678
1218.000000	12.043397
1217.000000	12.059020
1216.000000	12.097315
1215.000000	12.118922
1214.000000	12.039682
1213.000000	12.054994
1212.000000	12.084870
1211.000000	12.086958
1210.000000	12.090966
1209.000000	12.107152
1208.000000	12.092831
1207.000000	12.082589
1206.000000	12.108769
1205.000000	12.087793
1204.000000	12.095728
1203.000000	12.158948
1202.000000	12.117890
1201.000000	12.118950
1200.000000	12.112283
1199.000000	12.129531
1198.000000	12.120011
1197.000000	12.133721
1196.000000	12.140037
1195.000000	12.070020
1194.000000	12.110749
1193.000000	12.117862
1192.000000	12.095449
1191.000000	12.107347
1190.000000	12.128134
1189.000000	12.120150
1188.000000	12.143503
1187.000000	12.174440
1186.000000	12.189840
1185.000000	12.190149
1184.000000	12.176319
1183.000000	12.156848
1182.000000	12.171637
1181.000000	12.153238
1180.000000	12.135928
1179.000000	12.157492
1178.000000	12.174749
1177.000000	12.153798
1176.000000	12.171049
1175.000000	12.166734
1174.000000	12.144594
1173.000000	12.151951
1172.000000	12.186556
1171.000000	12.211640
1170.000000	12.211022
1169.000000	12.193124
1168.000000	12.179655
1167.000000	12.183779
1166.000000	12.187847
1165.000000	12.138527
1164.000000	12.168078
1163.000000	12.223681
1162.000000	12.214959
1161.000000	12.217856
1160.000000	12.209841
1159.000000	12.210291
1158.000000	12.212737
1157.000000	12.214424
1156.000000	12.202533
1155.000000	12.204809
1154.000000	12.218053
1153.000000	12.180188
1152.000000	12.198881
1151.000000	12.272160
1150.000000	12.293796
1149.000000	12.265832
1148.000000	12.277360
1147.000000	12.263798
1146.000000	12.207114
1145.000000	12.268007
1144.000000	12.245316
1143.000000	12.218053
1142.000000	12.277982
1141.000000	12.289720
1140.000000	12.289098
1139.000000	12.329175
1138.000000	12.378699
1137.000000	12.306399
1136.000000	12.301668
1135.000000	12.321994
1134.000000	12.305096
1133.000000	12.320746
1132.000000	12.322505
1131.000000	12.295834
1130.000000	12.312181
1129.000000	12.344372
1128.000000	12.306088
1127.000000	12.357995
1126.000000	12.388964
1125.000000	12.297788
1124.000000	12.301781
1123.000000	12.350143
1122.000000	12.343860
1121.000000	12.316009
1120.000000	12.357966
1119.000000	12.322675
1118.000000	12.297618
1117.000000	12.321654
1116.000000	12.340422
1115.000000	12.332752
1114.000000	12.365822
1113.000000	12.372629
1112.000000	12.345850
1111.000000	12.357056
1110.000000	12.341644
1109.000000	12.349006
1108.000000	12.417810
1107.000000	12.412978
1106.000000	12.381122
1105.000000	12.358564
1104.000000	12.405549
1103.000000	12.359332
1102.000000	12.389735
1101.000000	12.432830
1100.000000	12.385656
1099.000000	12.373171
1098.000000	12.435550
1097.000000	12.382490
1096.000000	12.398953
1095.000000	12.438156
1094.000000	12.428308
1093.000000	12.467776
1092.000000	12.435550
1091.000000	12.405578
1090.000000	12.406149
1089.000000	12.415122
1088.000000	12.455753
1087.000000	12.456556
1086.000000	12.459167
1085.000000	12.418124
1084.000000	12.465939
1083.000000	12.430340
1082.000000	12.433861
1081.000000	12.358962
1080.000000	12.423129
1079.000000	12.473117
1078.000000	12.367559
1077.000000	12.479868
1076.000000	12.498129
1075.000000	12.467460
1074.000000	12.481420
1073.000000	12.597228
1072.000000	12.473692
1071.000000	12.482483
1070.000000	12.575608
1069.000000	12.495597
1068.000000	12.538541
1067.000000	12.571121
1066.000000	12.569703
1065.000000	12.451767
1064.000000	12.528036
1063.000000	12.546107
1062.000000	12.523941
1061.000000	12.611856
1060.000000	12.521807
1059.000000	12.586385
1058.000000	12.524229
1057.000000	12.568574
1056.000000	12.571613
1055.000000	12.561775
1054.000000	12.594154
1053.000000	12.538830
1052.000000	12.501755
1051.000000	12.565912
1050.000000	12.518780
1049.000000	12.617665
1048.000000	12.604337
1047.000000	12.613076
1046.000000	12.560097
1045.000000	12.703723
1044.000000	12.575232
1043.000000	12.731982
1042.000000	12.723365
1041.000000	12.699394
1040.000000	12.558275
1039.000000	12.610491
1038.000000	12.659251
1037.000000	12.545732
1036.000000	12.756661
1035.000000	12.550730
1034.000000	12.578128
1033.000000	12.627605
1032.000000	12.636593
1031.000000	12.688609
1030.000000	12.725768
1029.000000	12.665286
1028.000000	12.711828
1027.000000	12.745151
1026.000000	12.713233
1025.000000	12.733330
1024.000000	12.712940
1023.000000	12.798704
1022.000000	12.802919
1021.000000	12.857159
1020.000000	12.666598
1019.000000	12.652606
1018.000000	12.807637
1017.000000	12.605091
1016.000000	12.692261
1015.000000	12.737553
1014.000000	12.735324
1013.000000	12.738521
1012.000000	12.743714
1011.000000	12.851032
1010.000000	12.724156
1009.000000	12.780387
1008.000000	12.858136
1007.000000	12.724684
1006.000000	12.699482
1005.000000	12.738403
1004.000000	12.764770
1003.000000	12.785302
1002.000000	12.910201
1001.000000	12.762478
1000.000000	12.756837
999.000000	12.856122
998.000000	12.686973
997.000000	12.826200
996.000000	12.860475
995.000000	12.759216
994.000000	12.692057
993.000000	12.917308
992.000000	12.924448
991.000000	12.896860
990.000000	12.936536
989.000000	12.880597
988.000000	12.829360
987.000000	12.967313
986.000000	12.911806
985.000000	12.980069
984.000000	13.014515
983.000000	12.939902
982.000000	12.783683
981.000000	12.894366
980.000000	12.901939
979.000000	12.921234
978.000000	12.911895
977.000000	12.817254
976.000000	12.853814
975.000000	12.854376
974.000000	12.820413
973.000000	12.919360
972.000000	13.019341
971.000000	12.938949
970.000000	12.989008
969.000000	13.082869
968.000000	12.874281
967.000000	12.887955
966.000000	12.892793
965.000000	12.936893
964.000000	13.046139
963.000000	12.990654
962.000000	13.043496
961.000000	13.025548
960.000000	13.119401
959.000000	12.977917
958.000000	13.035599
957.000000	13.032688
956.000000	13.022639
955.000000	13.013047
954.000000	13.011309
953.000000	13.160488
952.000000	13.026058
951.000000	13.047461
950.000000	13.226136
949.000000	13.083442
948.000000	13.058882
947.000000	13.110462
946.000000	13.209519
945.000000	13.092724
944.000000	13.004600
943.000000	13.020750
942.000000	13.048813
941.000000	12.992119
940.000000	12.975497
939.000000	13.199546
938.000000	13.157064
937.000000	13.131460
936.000000	13.138900
935.000000	13.283209
934.000000	13.206630
933.000000	13.195535
932.000000	13.290582
931.000000	13.263251
930.000000	13.120277
929.000000	13.173252
928.000000	13.225771
927.000000	13.050556
926.000000	13.080309
925.000000	13.083532
924.000000	13.110764
923.000000	13.243049
922.000000	13.340527
921.000000	13.209549
920.000000	13.003013
919.000000	13.214782
918.000000	13.266031
917.000000	13.345658
916.000000	13.261114
915.000000	13.323858
914.000000	13.479010
913.000000	13.179532
912.000000	13.182780
911.000000	13.208789
910.000000	13.302676
909.000000	13.196993
908.000000	13.180048
907.000000	13.394515
906.000000	13.688378
905.000000	13.502992
904.000000	13.138083
903.000000	13.340497
902.000000	13.425300
901.000000	13.643601
900.000000	13.534805
899.000000	13.480314
898.000000	13.555920
897.000000	13.416060
896.000000	13.597060
895.000000	13.598312
894.000000	13.329228
893.000000	13.543721
892.000000	13.951375
891.000000	13.914577
890.000000	14.064458
889.000000	13.815512
888.000000	13.400006
887.000000	13.110734
886.000000	13.401642
885.000000	13.738870
884.000000	13.608555
883.000000	13.592270
882.000000	13.476093
881.000000	13.438228
880.000000	13.275717
879.000000	13.030048
878.000000	12.456700
877.000000	13.281833
876.000000	13.588265
875.000000	13.491244
874.000000	13.961883
873.000000	13.768670
872.000000	13.627086
871.000000	13.715827
870.000000	14.233706
869.000000	13.435753
868.000000	14.097821
867.000000	13.885995
866.000000	12.802094
865.000000	12.970001
864.000000	12.825727
863.000000	13.537485
862.000000	13.848062
861.000000	13.375622
860.000000	13.119673
859.000000	12.769180
858.000000	12.972629
857.000000	12.812150
856.000000	12.582125
855.000000	12.933796
854.000000	13.100715
853.000000	13.246191
852.000000	13.079887
851.000000	12.814480
850.000000	13.010201
849.000000	13.142168
848.000000	13.088293
847.000000	13.234209
846.000000	13.155641
845.000000	13.094713
844.000000	13.032598
843.000000	13.062160
842.000000	13.186089
841.000000	13.306321
840.000000	13.238232
839.000000	13.244300
838.000000	13.328062
837.000000	13.306658
836.000000	13.310519
835.000000	13.302890
834.000000	13.291225
833.000000	13.373528
832.000000	13.286145
831.000000	13.358048
830.000000	13.341910
829.000000	13.381537
828.000000	13.392449
827.000000	13.459285
826.000000	13.498453
825.000000	13.508745
824.000000	13.476745
823.000000	13.437671
822.000000	13.457023
821.000000	13.475690
820.000000	13.505821
819.000000	13.521629
818.000000	13.618617
817.000000	13.616516
816.000000	13.594649
815.000000	13.548836
814.000000	13.595369
813.000000	13.600128
812.000000	13.545748
811.000000	13.567724
810.000000	13.642752
809.000000	13.699257
808.000000	13.752321
807.000000	13.706356
806.000000	13.676123
805.000000	13.682013
804.000000	13.796471
803.000000	13.694526
802.000000	13.743014
801.000000	13.794978
800.000000	13.769495
799.000000	13.799775
798.000000	13.771397
797.000000	13.814813
796.000000	13.837225
795.000000	13.778534
794.000000	13.830345
793.000000	13.804351
792.000000	13.899878
791.000000	13.873978
790.000000	13.927591
789.000000	13.886698
788.000000	13.860471
787.000000	13.895974
786.000000	13.930670
785.000000	13.944373
784.000000	13.921595
783.000000	14.000998
782.000000	13.959729
781.000000	14.006706
780.000000	14.000321
779.000000	13.991330
778.000000	14.026877
777.000000	14.015836
776.000000	14.031658
775.000000	14.074209
774.000000	14.093310
773.000000	14.082994
772.000000	14.048598
771.000000	14.025230
770.000000	14.037604
769.000000	14.083416
768.000000	14.046916
767.000000	14.072362
766.000000	14.082864
765.000000	14.083351
764.000000	14.113119
763.000000	14.105354
762.000000	14.049795
761.000000	14.053581
760.000000	14.064814
759.000000	14.087632
758.000000	14.052740
757.000000	14.054875
756.000000	14.046787
755.000000	14.040966
754.000000	14.062806
753.000000	14.017256
752.000000	13.980445
751.000000	13.981862
750.000000	13.927912
749.000000	13.904392
748.000000	13.883405
747.000000	13.879186
746.000000	13.882318
745.000000	13.888073
744.000000	13.769526
743.000000	13.748648
742.000000	13.792691
741.000000	13.736908
740.000000	13.696544
739.000000	13.688378
738.000000	13.654160
737.000000	13.647654
736.000000	13.645329
735.000000	13.601945
734.000000	13.567255
733.000000	13.534774
732.000000	13.512416
731.000000	13.482331
730.000000	13.459223
729.000000	13.479010
728.000000	13.443644
727.000000	13.427217
726.000000	13.392110
725.000000	13.391123
724.000000	13.396057
723.000000	13.384249
722.000000	13.394423
721.000000	13.348025
720.000000	13.336381
719.000000	13.332789
718.000000	13.309232
717.000000	13.326190
716.000000	13.306352
715.000000	13.313646
714.000000	13.322355
713.000000	13.344736
712.000000	13.354388
711.000000	13.360170
710.000000	13.383509
709.000000	13.410069
708.000000	13.406796
707.000000	13.440456
706.000000	13.449589
705.000000	13.473177
704.000000	13.530723
703.000000	13.567662
702.000000	13.582134
701.000000	13.627557
700.000000	13.661614
699.000000	13.675493
698.000000	13.696576
697.000000	13.765659
696.000000	13.788880
695.000000	13.814495
694.000000	13.839041
693.000000	13.878675
692.000000	13.916019
691.000000	13.923711
690.000000	13.966771
689.000000	13.997839
688.000000	14.022001
687.000000	14.035924
686.000000	14.058792
685.000000	14.080108
684.000000	14.113606
683.000000	14.132045
682.000000	14.154548
681.000000	14.190477
680.000000	14.202212
679.000000	14.232330
678.000000	14.249414
677.000000	14.262807
676.000000	14.271052
675.000000	14.299340
674.000000	14.320725
673.000000	14.324517
672.000000	14.355324
671.000000	14.383415
670.000000	14.381891
669.000000	14.413419
668.000000	14.448208
667.000000	14.469216
666.000000	14.472781
665.000000	14.468783
664.000000	14.496662
663.000000	14.507614
662.000000	14.496061
661.000000	14.503539
660.000000	14.514698
659.000000	14.502805
658.000000	14.502604
657.000000	14.513996
656.000000	14.487151
655.000000	14.478614
654.000000	14.490187
653.000000	14.501402
652.000000	14.514698
651.000000	14.526300
650.000000	14.532690
649.000000	14.521852
648.000000	14.526400
647.000000	14.547220
646.000000	14.547655
645.000000	14.556233
644.000000	14.558479
643.000000	14.552245
642.000000	14.562066
641.000000	14.589419
640.000000	14.613088
639.000000	14.612953
638.000000	14.613997
637.000000	14.620088
636.000000	14.648056
635.000000	14.655107
634.000000	14.671483
633.000000	14.712721
632.000000	14.722040
631.000000	14.729195
630.000000	14.764305
629.000000	14.788802
628.000000	14.803282
627.000000	14.813067
626.000000	14.828117
625.000000	14.855456
624.000000	14.871919
623.000000	14.889496
622.000000	14.894674
621.000000	14.902804
620.000000	14.938775
619.000000	14.972144
618.000000	14.972454
617.000000	14.992360
616.000000	15.004344
615.000000	15.017305
614.000000	15.053310
613.000000	15.062775
612.000000	15.093189
611.000000	15.127320
610.000000	15.141817
609.000000	15.164567
608.000000	15.187070
607.000000	15.229162
606.000000	15.232984
605.000000	15.259841
604.000000	15.300513
603.000000	15.326500
602.000000	15.348962
601.000000	15.397847
600.000000	15.431886
599.000000	15.456993
598.000000	15.482319
597.000000	15.510186
596.000000	15.532845
595.000000	15.547945
594.000000	15.581347
593.000000	15.598362
592.000000	15.638245
591.000000	15.653916
590.000000	15.650780
589.000000	15.669026
588.000000	15.688629
587.000000	15.691736
586.000000	15.700627
585.000000	15.699904
584.000000	15.693977
583.000000	15.698169
582.000000	15.676929
581.000000	15.639685
580.000000	15.633312
579.000000	15.585904
578.000000	15.529054
577.000000	15.496692
576.000000	15.427693
575.000000	15.380873
574.000000	15.318280
573.000000	15.253377
572.000000	15.220047
571.000000	15.180567
570.000000	15.144014
569.000000	15.132894
568.000000	15.118232
567.000000	15.125997
566.000000	15.159120
565.000000	15.153990
564.000000	15.182665
563.000000	15.227268
562.000000	15.264128
561.000000	15.304953
560.000000	15.343555
559.000000	15.394444
558.000000	15.434267
557.000000	15.489022
556.000000	15.527838
555.000000	15.608278
554.000000	15.631512
553.000000	15.682273
552.000000	15.723311
551.000000	15.749073
550.000000	15.800142
549.000000	15.853056
548.000000	15.898531
547.000000	15.919998
546.000000	15.956734
545.000000	15.999227
544.000000	16.031199
543.000000	16.076148
542.000000	16.115545
541.000000	16.141504
540.000000	16.170558
539.000000	16.210522
538.000000	16.229121
537.000000	16.275113
536.000000	16.262264
535.000000	16.299902
534.000000	16.321234
533.000000	16.331873
532.000000	16.360704
531.000000	16.367864
530.000000	16.385247
529.000000	16.417272
528.000000	16.435957
527.000000	16.432627
526.000000	16.460916
525.000000	16.467361
524.000000	16.483977
523.000000	16.514027
522.000000	16.543790
521.000000	16.554993
520.000000	16.559949
519.000000	16.582576
518.000000	16.615484
517.000000	16.614298
516.000000	16.653902
515.000000	16.628153
514.000000	16.656663
513.000000	16.646311
512.000000	16.655436
511.000000	16.633743
510.000000	16.624630
509.000000	16.616249
508.000000	16.597512
507.000000	16.616249
506.000000	16.570667
505.000000	16.571125
504.000000	16.572537
503.000000	16.569027
502.000000	16.508971
501.000000	16.519314
500.000000	16.524716
499.000000	16.530462
498.000000	16.525401
497.000000	16.509921
496.000000	16.537353
495.000000	16.535868
494.000000	16.550991
493.000000	16.548514
492.000000	16.573491
491.000000	16.572842
490.000000	16.598506
489.000000	16.616173
488.000000	16.630909
487.000000	16.636080
486.000000	16.638264
485.000000	16.656970
484.000000	16.676542
483.000000	16.699097
482.000000	16.713253
481.000000	16.738633
480.000000	16.758456
479.000000	16.773396
478.000000	16.818180
477.000000	16.837593
476.000000	16.872250
475.000000	16.891180
474.000000	16.918311
473.000000	16.945602
472.000000	16.970241
471.000000	17.012690
470.000000	17.040448
469.000000	17.059410
468.000000	17.083466
467.000000	17.121271
466.000000	17.149008
465.000000	17.165442
464.000000	17.191984
463.000000	17.225665
462.000000	17.238799
461.000000	17.266209
460.000000	17.288169
459.000000	17.311313
458.000000	17.344389
457.000000	17.367168
456.000000	17.369647
455.000000	17.391578
454.000000	17.418911
453.000000	17.432192
452.000000	17.458784
451.000000	17.486545
450.000000	17.509389
449.000000	17.530528
448.000000	17.512212
447.000000	17.552582
446.000000	17.583608
445.000000	17.604188
444.000000	17.587536
443.000000	17.598311
442.000000	17.602040
441.000000	17.591627
440.000000	17.645217
439.000000	17.672012
438.000000	17.702802
437.000000	17.689885
436.000000	17.729194
435.000000	17.764296
434.000000	17.745613
433.000000	17.772560
432.000000	17.801312
431.000000	17.845306
430.000000	17.883849
429.000000	17.902967
428.000000	17.917277
427.000000	17.952627
426.000000	17.989869
425.000000	18.011298
424.000000	18.027105
423.000000	18.041349
422.000000	18.068246
421.000000	18.082230
420.000000	18.095559
419.000000	18.136981
418.000000	18.179084
417.000000	18.189971
416.000000	18.234002
415.000000	18.244922
414.000000	18.253242
413.000000	18.266149
412.000000	18.294561
411.000000	18.292582
410.000000	18.287486
409.000000	18.296457
408.000000	18.265140
407.000000	18.192484
406.000000	18.148302
405.000000	18.041723
404.000000	17.903544
403.000000	17.768673
402.000000	17.585187
401.000000	17.409288
400.000000	17.162597
399.000000	16.887136
398.000000	16.612156
397.000000	16.269904
396.000000	15.883310
395.000000	15.450659
394.000000	15.023323
393.000000	14.584985
392.000000	14.131622
391.000000	13.672061
390.000000	13.214995
389.000000	12.782241
388.000000	12.343065
387.000000	11.916233
386.000000	11.551942
385.000000	11.187473
384.000000	10.835152
383.000000	10.523180
382.000000	10.252387
381.000000	10.006518
380.000000	9.759150
379.000000	9.472181
378.000000	9.199919
377.000000	8.986529
376.000000	8.779727
375.000000	8.648962
374.000000	8.521558
373.000000	8.351741
372.000000	8.192020
371.000000	8.083138
370.000000	7.994936
369.000000	7.880722
368.000000	7.749970
367.000000	7.641172
366.000000	7.562215
365.000000	7.483073
364.000000	7.386539
363.000000	7.314001
362.000000	7.231377
361.000000	7.163578
360.000000	7.097673
359.000000	7.041027
358.000000	6.979865
357.000000	6.943077
356.000000	6.900825
355.000000	6.844536
354.000000	6.793037
353.000000	6.752226
352.000000	6.719114
351.000000	6.695639
350.000000	6.703707
349.000000	6.701423
348.000000	6.664583
347.000000	6.628710
346.000000	6.638944
345.000000	6.641574
344.000000	6.627794
343.000000	6.619817
342.000000	6.642782
341.000000	6.653681
340.000000	6.658923
339.000000	6.683532
338.000000	6.653635
337.000000	6.675641
336.000000	6.687919
335.000000	6.726389
334.000000	6.766171
333.000000	6.770956
332.000000	6.783097
331.000000	6.821643
330.000000	6.855798
329.000000	6.846191
328.000000	6.871127
327.000000	6.909633
326.000000	6.995037
325.000000	6.963443
324.000000	6.953973
323.000000	6.981279
322.000000	7.000580
321.000000	7.040346
320.000000	7.049349
319.000000	7.045049
318.000000	7.023814
317.000000	7.011323
316.000000	7.004965
315.000000	7.031824
314.000000	7.013164
313.000000	7.066185
312.000000	7.031096
311.000000	7.010226
310.000000	7.018834
309.000000	7.078545
308.000000	7.073755
307.000000	7.092919
306.000000	7.092723
305.000000	7.023604
304.000000	6.997260
303.000000	6.992718
302.000000	6.989659
301.000000	6.995391
300.000000	6.941079
299.000000	6.954662
298.000000	6.919536
297.000000	6.872726
296.000000	6.869071
295.000000	6.806565
294.000000	6.832333
293.000000	6.809951
292.000000	6.771533
291.000000	6.755990
290.000000	6.726018
289.000000	6.683455
288.000000	6.705914
287.000000	6.693018
286.000000	6.708833
285.000000	6.690507
284.000000	6.636346
283.000000	6.651001
282.000000	6.629763
281.000000	6.619909
280.000000	6.628099
279.000000	6.651813
278.000000	6.596689
277.000000	6.616434
276.000000	6.601703
275.000000	6.587915
274.000000	6.586050
273.000000	6.561120
272.000000	6.570842
271.000000	6.542896
270.000000	6.530659
269.000000	6.470934
268.000000	6.492710
267.000000	6.510135
266.000000	6.485837
265.000000	6.483104
264.000000	6.487121
263.000000	6.485627
262.000000	6.439305
261.000000	6.456602
260.000000	6.461435
259.000000	6.404039
258.000000	6.367809
257.000000	6.434666
256.000000	6.359413
255.000000	6.337238
254.000000	6.346715
253.000000	6.317336
252.000000	6.276709
251.000000	6.316347
250.000000	6.313148
249.000000	6.315344
248.000000	6.249669
247.000000	6.272577
246.000000	6.248474
245.000000	6.252749
244.000000	6.246072
243.000000	6.247741
242.000000	6.201946
241.000000	6.221541
240.000000	6.265677
239.000000	6.247050
238.000000	6.261538
237.000000	6.265244
236.000000	6.268491
235.000000	6.244303
234.000000	6.272028
233.000000	6.260226
232.000000	6.328736
231.000000	6.318180
230.000000	6.344669
229.000000	6.369554
228.000000	6.371901
227.000000	6.399558
226.000000	6.413041
225.000000	6.396597
224.000000	6.449499
223.000000	6.528584
222.000000	6.487435
221.000000	6.507977
220.000000	6.494953
219.000000	6.499216
218.000000	6.568119
217.000000	6.623171
216.000000	6.636086
215.000000	6.662052
214.000000	6.652640
213.000000	6.643057
212.000000	6.667100
211.000000	6.722580
210.000000	6.709698
209.000000	6.742113
208.000000	6.768150
207.000000	6.801614
206.000000	6.814390
205.000000	6.846207
204.000000	6.919282
203.000000	6.935168
202.000000	6.950819
201.000000	7.075025
200.000000	7.074423
199.000000	7.207854
198.000000	7.320656
197.000000	7.367769
196.000000	7.554783
195.000000	7.717346
194.000000	7.799289
193.000000	8.025628
192.000000	8.356069
191.000000	9.034810
190.000000	11.451490
189.000000	17.260326
188.000000	31.995065
187.000000	65.235951
186.000000	87.239065
185.000000	97.835394
184.000000	95.860568
183.000000	95.332943
182.000000	97.659388
181.000000	99.736242
180.000000	95.136463
179.000000	100.703833
178.000000	100.760427
177.000000	101.895968
176.000000	101.233674
175.000000	93.693616
