PE UV       SUBTECH     SPECTRUM    ASCII       PEDS        4.00        
   -1
Sample3.Sample.Raw.asc
25/05/30
11:35:57.00
25/05/30
11:35:57.00
tom jordan
DDQ R1
175.000000
1
Lambda 1050
1050L1807051
PerkinElmer UV WinLab 6.4.0.973 / 2.02.06 Lambda 900 UV/VIS/NIR, Jan 28 2016 16:58:34

0
0
3350/servo 860.8/2
0
0
UV/VIS
1
1
1
RBeamAtt,SBeamAtt,150mm sphere / downward view, WB InGaAs Detector
0
0
0
0
Program
Program
3350/servo 860.8/2
3350/0.2 860.8/0.2
3350/0.2 860.8/0.2
0
1.00
 
 
 
0
 
860.8
319.2
860.8
Front
100
 
S:100 R:100
 
0
0
0
 
0
 
 
 
0
 
 
0
0
0
0
0
 
 
 
 
0
0


0
0
#HDR
-1
-1
#GR
nm
A
1.0
0.0
2000.000000
-1.000000
1826
8
1.211865
-0.006305
#DATA
2000.000000	0.993550
1999.000000	1.000683
1998.000000	0.996041
1997.000000	0.995820
1996.000000	0.997228
1995.000000	0.991398
1994.000000	0.989754
1993.000000	0.992746
1992.000000	1.003463
1991.000000	1.003008
1990.000000	0.996101
1989.000000	1.005922
1988.000000	1.006410
1987.000000	1.001063
1986.000000	0.996730
1985.000000	1.004217
1984.000000	1.011156
1983.000000	1.001109
1982.000000	0.991292
1981.000000	0.992645
1980.000000	1.000962
1979.000000	0.984929
1978.000000	1.002621
1977.000000	1.001564
1976.000000	1.006530
1975.000000	0.998844
1974.000000	0.996859
1973.000000	1.005844
1972.000000	1.005711
1971.000000	0.992588
1970.000000	0.990686
1969.000000	1.006570
1968.000000	1.002454
1967.000000	1.000821
1966.000000	1.002397
1965.000000	0.996081
1964.000000	0.993920
1963.000000	0.990913
1962.000000	1.004669
1961.000000	0.988813
1960.000000	0.998674
1959.000000	1.001471
1958.000000	1.001387
1957.000000	1.006120
1956.000000	0.997689
1955.000000	0.990034
1954.000000	0.992078
1953.000000	0.995499
1952.000000	1.014073
1951.000000	1.003373
1950.000000	0.999800
1949.000000	0.999786
1948.000000	1.002654
1947.000000	1.002874
1946.000000	0.994761
1945.000000	0.993805
1944.000000	0.991531
1943.000000	0.988072
1942.000000	0.990529
1941.000000	0.987176
1940.000000	0.989407
1939.000000	0.996436
1938.000000	1.002245
1937.000000	1.007811
1936.000000	1.012231
1935.000000	1.005659
1934.000000	1.012132
1933.000000	1.000651
1932.000000	1.001843
1931.000000	0.989509
1930.000000	0.993992
1929.000000	0.994653
1928.000000	1.001035
1927.000000	0.984873
1926.000000	0.981923
1925.000000	0.984536
1924.000000	0.995031
1923.000000	1.005822
1922.000000	1.004250
1921.000000	1.002415
1920.000000	1.010057
1919.000000	1.009078
1918.000000	0.994714
1917.000000	1.009122
1916.000000	1.004295
1915.000000	0.995644
1914.000000	0.990061
1913.000000	0.990061
1912.000000	0.997378
1911.000000	0.988666
1910.000000	0.987097
1909.000000	0.979278
1908.000000	0.987045
1907.000000	0.981314
1906.000000	0.976730
1905.000000	0.992335
1904.000000	0.978783
1903.000000	0.974765
1902.000000	0.976579
1901.000000	0.970129
1900.000000	0.966582
1899.000000	0.975451
1898.000000	0.978733
1897.000000	0.974333
1896.000000	0.974967
1895.000000	0.979440
1894.000000	0.976941
1893.000000	0.976219
1892.000000	0.983500
1891.000000	0.988941
1890.000000	0.992305
1889.000000	0.986003
1888.000000	0.984757
1887.000000	0.985268
1886.000000	0.986301
1885.000000	0.988594
1884.000000	0.991897
1883.000000	0.987418
1882.000000	0.982484
1881.000000	0.993849
1880.000000	0.989798
1879.000000	0.987061
1878.000000	0.989447
1877.000000	0.984788
1876.000000	0.979199
1875.000000	0.983445
1874.000000	0.983652
1873.000000	0.979606
1872.000000	0.981058
1871.000000	0.983751
1870.000000	0.983136
1869.000000	0.979125
1868.000000	0.990879
1867.000000	0.996497
1866.000000	0.989806
1865.000000	0.985388
1864.000000	0.985056
1863.000000	0.981183
1862.000000	0.977494
1861.000000	0.984141
1860.000000	0.988423
1859.000000	0.989434
1858.000000	0.982683
1857.000000	0.988643
1856.000000	0.990650
1855.000000	0.983893
1854.000000	0.988432
1853.000000	0.995219
1852.000000	0.986408
1851.000000	0.988502
1850.000000	0.988994
1849.000000	0.986107
1848.000000	0.986696
1847.000000	0.984273
1846.000000	0.987964
1845.000000	0.989286
1844.000000	0.984610
1843.000000	0.991101
1842.000000	0.990955
1841.000000	0.987611
1840.000000	0.989213
1839.000000	0.995916
1838.000000	0.992138
1837.000000	0.985140
1836.000000	0.989992
1835.000000	0.989507
1834.000000	0.994668
1833.000000	0.989082
1832.000000	0.989467
1831.000000	0.991734
1830.000000	0.994351
1829.000000	1.000792
1828.000000	0.991639
1827.000000	0.986520
1826.000000	0.987048
1825.000000	0.989904
1824.000000	0.986581
1823.000000	0.987816
1822.000000	0.984439
1821.000000	0.993673
1820.000000	0.989098
1819.000000	0.981476
1818.000000	0.987579
1817.000000	0.993868
1816.000000	0.991329
1815.000000	0.986205
1814.000000	0.991862
1813.000000	0.988626
1812.000000	0.982499
1811.000000	0.990089
1810.000000	0.985408
1809.000000	0.990439
1808.000000	0.994482
1807.000000	0.997615
1806.000000	0.988787
1805.000000	0.989854
1804.000000	0.989988
1803.000000	0.990430
1802.000000	0.984936
1801.000000	0.990068
1800.000000	0.991457
1799.000000	0.988483
1798.000000	0.993903
1797.000000	0.989503
1796.000000	0.988304
1795.000000	0.989354
1794.000000	0.985291
1793.000000	0.987684
1792.000000	0.987469
1791.000000	0.987261
1790.000000	0.985771
1789.000000	0.989427
1788.000000	0.988767
1787.000000	0.993213
1786.000000	0.991394
1785.000000	0.974467
1784.000000	0.984343
1783.000000	0.986732
1782.000000	0.989080
1781.000000	0.986194
1780.000000	0.982134
1779.000000	0.986666
1778.000000	0.977873
1777.000000	0.983965
1776.000000	0.991180
1775.000000	0.983498
1774.000000	0.986674
1773.000000	0.979282
1772.000000	0.983208
1771.000000	0.981639
1770.000000	0.987881
1769.000000	0.983722
1768.000000	0.988677
1767.000000	0.980249
1766.000000	0.978261
1765.000000	0.984698
1764.000000	0.978156
1763.000000	0.979248
1762.000000	0.983123
1761.000000	0.984051
1760.000000	0.987490
1759.000000	0.984454
1758.000000	0.975045
1757.000000	0.973520
1756.000000	0.982263
1755.000000	0.977617
1754.000000	0.978124
1753.000000	0.976388
1752.000000	0.980686
1751.000000	0.979877
1750.000000	0.975672
1749.000000	0.983721
1748.000000	0.974806
1747.000000	0.982360
1746.000000	0.980791
1745.000000	0.985007
1744.000000	0.978126
1743.000000	0.974728
1742.000000	0.979177
1741.000000	0.979731
1740.000000	0.980877
1739.000000	0.977362
1738.000000	0.980076
1737.000000	0.978511
1736.000000	0.980805
1735.000000	0.984168
1734.000000	0.981309
1733.000000	0.978873
1732.000000	0.982931
1731.000000	0.977467
1730.000000	0.978111
1729.000000	0.975045
1728.000000	0.977911
1727.000000	0.979605
1726.000000	0.978525
1725.000000	0.975247
1724.000000	0.981329
1723.000000	0.973891
1722.000000	0.975416
1721.000000	0.975472
1720.000000	0.977969
1719.000000	0.973943
1718.000000	0.970025
1717.000000	0.972130
1716.000000	0.971460
1715.000000	0.974143
1714.000000	0.974210
1713.000000	0.975836
1712.000000	0.978700
1711.000000	0.974844
1710.000000	0.973720
1709.000000	0.974475
1708.000000	0.977799
1707.000000	0.974562
1706.000000	0.975070
1705.000000	0.974384
1704.000000	0.974068
1703.000000	0.974014
1702.000000	0.974564
1701.000000	0.973363
1700.000000	0.972249
1699.000000	0.973135
1698.000000	0.976267
1697.000000	0.975555
1696.000000	0.972419
1695.000000	0.973272
1694.000000	0.973330
1693.000000	0.972051
1692.000000	0.973237
1691.000000	0.974507
1690.000000	0.976711
1689.000000	0.980198
1688.000000	0.973407
1687.000000	0.970635
1686.000000	0.971945
1685.000000	0.974495
1684.000000	0.973241
1683.000000	0.971659
1682.000000	0.972158
1681.000000	0.971969
1680.000000	0.972803
1679.000000	0.971777
1678.000000	0.974780
1677.000000	0.974261
1676.000000	0.973401
1675.000000	0.978908
1674.000000	0.977950
1673.000000	0.973497
1672.000000	0.973102
1671.000000	0.971229
1670.000000	0.969805
1669.000000	0.970989
1668.000000	0.969897
1667.000000	0.971473
1666.000000	0.969879
1665.000000	0.969912
1664.000000	0.972995
1663.000000	0.973213
1662.000000	0.970562
1661.000000	0.970230
1660.000000	0.970415
1659.000000	0.972969
1658.000000	0.975533
1657.000000	0.971878
1656.000000	0.969488
1655.000000	0.969300
1654.000000	0.967462
1653.000000	0.970950
1652.000000	0.968792
1651.000000	0.966028
1650.000000	0.965494
1649.000000	0.963736
1648.000000	0.965494
1647.000000	0.969615
1646.000000	0.969116
1645.000000	0.968158
1644.000000	0.969602
1643.000000	0.969128
1642.000000	0.968213
1641.000000	0.968472
1640.000000	0.967252
1639.000000	0.967360
1638.000000	0.967957
1637.000000	0.968995
1636.000000	0.967587
1635.000000	0.964648
1634.000000	0.966971
1633.000000	0.969137
1632.000000	0.964546
1631.000000	0.962848
1630.000000	0.968119
1629.000000	0.969602
1628.000000	0.969743
1627.000000	0.969006
1626.000000	0.967010
1625.000000	0.966107
1624.000000	0.965435
1623.000000	0.963101
1622.000000	0.960714
1621.000000	0.964681
1620.000000	0.965163
1619.000000	0.963913
1618.000000	0.965415
1617.000000	0.965018
1616.000000	0.965949
1615.000000	0.968049
1614.000000	0.964069
1613.000000	0.962176
1612.000000	0.963038
1611.000000	0.961348
1610.000000	0.961358
1609.000000	0.961609
1608.000000	0.962238
1607.000000	0.965463
1606.000000	0.966664
1605.000000	0.964863
1604.000000	0.964949
1603.000000	0.962714
1602.000000	0.963604
1601.000000	0.960628
1600.000000	0.966251
1599.000000	0.964441
1598.000000	0.962348
1597.000000	0.963862
1596.000000	0.962430
1595.000000	0.959110
1594.000000	0.962355
1593.000000	0.964652
1592.000000	0.964393
1591.000000	0.964957
1590.000000	0.960738
1589.000000	0.955966
1588.000000	0.959455
1587.000000	0.959852
1586.000000	0.962572
1585.000000	0.963064
1584.000000	0.961006
1583.000000	0.962000
1582.000000	0.957793
1581.000000	0.958010
1580.000000	0.954306
1579.000000	0.957706
1578.000000	0.960026
1577.000000	0.957416
1576.000000	0.956889
1575.000000	0.957391
1574.000000	0.962332
1573.000000	0.958812
1572.000000	0.959671
1571.000000	0.961006
1570.000000	0.960352
1569.000000	0.957008
1568.000000	0.957394
1567.000000	0.958556
1566.000000	0.956120
1565.000000	0.954783
1564.000000	0.950072
1563.000000	0.953429
1562.000000	0.957552
1561.000000	0.956611
1560.000000	0.959248
1559.000000	0.956523
1558.000000	0.958482
1557.000000	0.955153
1556.000000	0.956810
1555.000000	0.958273
1554.000000	0.959688
1553.000000	0.954608
1552.000000	0.951138
1551.000000	0.954015
1550.000000	0.955683
1549.000000	0.955171
1548.000000	0.957975
1547.000000	0.954741
1546.000000	0.952887
1545.000000	0.954798
1544.000000	0.954096
1543.000000	0.952649
1542.000000	0.952389
1541.000000	0.953929
1540.000000	0.952639
1539.000000	0.951271
1538.000000	0.953597
1537.000000	0.952816
1536.000000	0.952858
1535.000000	0.955394
1534.000000	0.954993
1533.000000	0.951059
1532.000000	0.951410
1531.000000	0.951179
1530.000000	0.952450
1529.000000	0.947642
1528.000000	0.951013
1527.000000	0.951775
1526.000000	0.951018
1525.000000	0.951305
1524.000000	0.949877
1523.000000	0.947008
1522.000000	0.945410
1521.000000	0.946348
1520.000000	0.950558
1519.000000	0.949046
1518.000000	0.950358
1517.000000	0.950642
1516.000000	0.951194
1515.000000	0.949629
1514.000000	0.949298
1513.000000	0.949800
1512.000000	0.948114
1511.000000	0.947359
1510.000000	0.951456
1509.000000	0.949547
1508.000000	0.950506
1507.000000	0.951466
1506.000000	0.948892
1505.000000	0.948161
1504.000000	0.947342
1503.000000	0.948269
1502.000000	0.945312
1501.000000	0.948271
1500.000000	0.947567
1499.000000	0.942750
1498.000000	0.948165
1497.000000	0.946145
1496.000000	0.944431
1495.000000	0.941733
1494.000000	0.944842
1493.000000	0.944597
1492.000000	0.945227
1491.000000	0.941940
1490.000000	0.943301
1489.000000	0.944074
1488.000000	0.943494
1487.000000	0.940986
1486.000000	0.941901
1485.000000	0.942022
1484.000000	0.945233
1483.000000	0.940061
1482.000000	0.942627
1481.000000	0.944401
1480.000000	0.947177
1479.000000	0.944898
1478.000000	0.941188
1477.000000	0.939399
1476.000000	0.938233
1475.000000	0.941750
1474.000000	0.943506
1473.000000	0.940449
1472.000000	0.941369
1471.000000	0.941159
1470.000000	0.944932
1469.000000	0.941297
1468.000000	0.937475
1467.000000	0.937103
1466.000000	0.936444
1465.000000	0.939115
1464.000000	0.939297
1463.000000	0.938496
1462.000000	0.938379
1461.000000	0.937061
1460.000000	0.940441
1459.000000	0.939100
1458.000000	0.939272
1457.000000	0.940013
1456.000000	0.940216
1455.000000	0.941027
1454.000000	0.939346
1453.000000	0.938269
1452.000000	0.935142
1451.000000	0.936215
1450.000000	0.938169
1449.000000	0.938246
1448.000000	0.936758
1447.000000	0.934690
1446.000000	0.935859
1445.000000	0.934606
1444.000000	0.935355
1443.000000	0.935680
1442.000000	0.934748
1441.000000	0.933758
1440.000000	0.932936
1439.000000	0.935412
1438.000000	0.934621
1437.000000	0.934340
1436.000000	0.935775
1435.000000	0.936427
1434.000000	0.935149
1433.000000	0.934436
1432.000000	0.935045
1431.000000	0.932623
1430.000000	0.934047
1429.000000	0.933798
1428.000000	0.932691
1427.000000	0.932399
1426.000000	0.931945
1425.000000	0.935835
1424.000000	0.934851
1423.000000	0.932913
1422.000000	0.932843
1421.000000	0.931590
1420.000000	0.929661
1419.000000	0.930421
1418.000000	0.933331
1417.000000	0.933775
1416.000000	0.931544
1415.000000	0.929697
1414.000000	0.930626
1413.000000	0.929302
1412.000000	0.927958
1411.000000	0.929265
1410.000000	0.929124
1409.000000	0.928887
1408.000000	0.928378
1407.000000	0.928883
1406.000000	0.930559
1405.000000	0.930277
1404.000000	0.928634
1403.000000	0.928115
1402.000000	0.929950
1401.000000	0.929408
1400.000000	0.928924
1399.000000	0.929764
1398.000000	0.927169
1397.000000	0.925906
1396.000000	0.925999
1395.000000	0.928159
1394.000000	0.929290
1393.000000	0.927378
1392.000000	0.926897
1391.000000	0.926395
1390.000000	0.926338
1389.000000	0.924456
1388.000000	0.923889
1387.000000	0.925628
1386.000000	0.924654
1385.000000	0.925480
1384.000000	0.927339
1383.000000	0.925713
1382.000000	0.923522
1381.000000	0.923370
1380.000000	0.926063
1379.000000	0.927500
1378.000000	0.924256
1377.000000	0.922937
1376.000000	0.925491
1375.000000	0.923613
1374.000000	0.922103
1373.000000	0.921702
1372.000000	0.921423
1371.000000	0.920696
1370.000000	0.920860
1369.000000	0.923244
1368.000000	0.923229
1367.000000	0.921796
1366.000000	0.921325
1365.000000	0.923565
1364.000000	0.923662
1363.000000	0.922103
1362.000000	0.920366
1361.000000	0.918685
1360.000000	0.920181
1359.000000	0.920367
1358.000000	0.921020
1357.000000	0.921033
1356.000000	0.919800
1355.000000	0.917778
1354.000000	0.917970
1353.000000	0.922005
1352.000000	0.921800
1351.000000	0.921178
1350.000000	0.919295
1349.000000	0.918323
1348.000000	0.917458
1347.000000	0.918020
1346.000000	0.918920
1345.000000	0.919090
1344.000000	0.919135
1343.000000	0.919128
1342.000000	0.916979
1341.000000	0.918119
1340.000000	0.919832
1339.000000	0.920397
1338.000000	0.917743
1337.000000	0.915753
1336.000000	0.917038
1335.000000	0.916693
1334.000000	0.916628
1333.000000	0.919186
1332.000000	0.916950
1331.000000	0.918657
1330.000000	0.917965
1329.000000	0.916547
1328.000000	0.915887
1327.000000	0.914725
1326.000000	0.915449
1325.000000	0.913262
1324.000000	0.914482
1323.000000	0.915308
1322.000000	0.913099
1321.000000	0.913659
1320.000000	0.913990
1319.000000	0.915096
1318.000000	0.912150
1317.000000	0.912237
1316.000000	0.913713
1315.000000	0.913576
1314.000000	0.912554
1313.000000	0.913189
1312.000000	0.913087
1311.000000	0.910459
1310.000000	0.912565
1309.000000	0.910924
1308.000000	0.911411
1307.000000	0.912370
1306.000000	0.911424
1305.000000	0.911501
1304.000000	0.910226
1303.000000	0.910471
1302.000000	0.908919
1301.000000	0.910251
1300.000000	0.910629
1299.000000	0.910667
1298.000000	0.909564
1297.000000	0.908565
1296.000000	0.909854
1295.000000	0.908546
1294.000000	0.906986
1293.000000	0.907694
1292.000000	0.907130
1291.000000	0.908029
1290.000000	0.909238
1289.000000	0.908648
1288.000000	0.906968
1287.000000	0.908567
1286.000000	0.906388
1285.000000	0.906769
1284.000000	0.905059
1283.000000	0.904777
1282.000000	0.906542
1281.000000	0.904501
1280.000000	0.905361
1279.000000	0.905997
1278.000000	0.905103
1277.000000	0.904261
1276.000000	0.905153
1275.000000	0.905497
1274.000000	0.904568
1273.000000	0.905991
1272.000000	0.905298
1271.000000	0.904277
1270.000000	0.902560
1269.000000	0.901434
1268.000000	0.902166
1267.000000	0.900263
1266.000000	0.902440
1265.000000	0.900895
1264.000000	0.903000
1263.000000	0.904438
1262.000000	0.901790
1261.000000	0.903151
1260.000000	0.900555
1259.000000	0.901560
1258.000000	0.901044
1257.000000	0.900556
1256.000000	0.901738
1255.000000	0.899401
1254.000000	0.900332
1253.000000	0.899791
1252.000000	0.898445
1251.000000	0.899304
1250.000000	0.897983
1249.000000	0.898027
1248.000000	0.898815
1247.000000	0.897883
1246.000000	0.897012
1245.000000	0.897278
1244.000000	0.896082
1243.000000	0.897456
1242.000000	0.897302
1241.000000	0.896539
1240.000000	0.895190
1239.000000	0.895235
1238.000000	0.897929
1237.000000	0.895348
1236.000000	0.892619
1235.000000	0.896065
1234.000000	0.894879
1233.000000	0.895788
1232.000000	0.893671
1231.000000	0.894802
1230.000000	0.895393
1229.000000	0.892768
1228.000000	0.894048
1227.000000	0.894328
1226.000000	0.893652
1225.000000	0.893336
1224.000000	0.893784
1223.000000	0.892522
1222.000000	0.891535
1221.000000	0.891589
1220.000000	0.891807
1219.000000	0.891546
1218.000000	0.891730
1217.000000	0.892232
1216.000000	0.891197
1215.000000	0.890380
1214.000000	0.890829
1213.000000	0.889691
1212.000000	0.889984
1211.000000	0.888300
1210.000000	0.889801
1209.000000	0.891069
1208.000000	0.889546
1207.000000	0.888673
1206.000000	0.887901
1205.000000	0.887720
1204.000000	0.888854
1203.000000	0.887767
1202.000000	0.886426
1201.000000	0.887583
1200.000000	0.887420
1199.000000	0.886376
1198.000000	0.885248
1197.000000	0.885159
1196.000000	0.887342
1195.000000	0.885823
1194.000000	0.885634
1193.000000	0.885544
1192.000000	0.885680
1191.000000	0.885652
1190.000000	0.884299
1189.000000	0.883266
1188.000000	0.884726
1187.000000	0.884585
1186.000000	0.884089
1185.000000	0.882162
1184.000000	0.883426
1183.000000	0.884619
1182.000000	0.884191
1181.000000	0.883449
1180.000000	0.882655
1179.000000	0.883604
1178.000000	0.883483
1177.000000	0.882612
1176.000000	0.881988
1175.000000	0.881031
1174.000000	0.880255
1173.000000	0.879679
1172.000000	0.880522
1171.000000	0.879870
1170.000000	0.879824
1169.000000	0.879856
1168.000000	0.879801
1167.000000	0.879344
1166.000000	0.879082
1165.000000	0.879205
1164.000000	0.879146
1163.000000	0.878468
1162.000000	0.877407
1161.000000	0.877279
1160.000000	0.877784
1159.000000	0.877986
1158.000000	0.877699
1157.000000	0.876727
1156.000000	0.876070
1155.000000	0.876222
1154.000000	0.876759
1153.000000	0.876400
1152.000000	0.875863
1151.000000	0.876104
1150.000000	0.875610
1149.000000	0.875761
1148.000000	0.876056
1147.000000	0.875418
1146.000000	0.874465
1145.000000	0.873915
1144.000000	0.874938
1143.000000	0.874428
1142.000000	0.874041
1141.000000	0.874316
1140.000000	0.873726
1139.000000	0.872242
1138.000000	0.873435
1137.000000	0.872630
1136.000000	0.870651
1135.000000	0.871362
1134.000000	0.871507
1133.000000	0.872669
1132.000000	0.871432
1131.000000	0.870004
1130.000000	0.869563
1129.000000	0.869674
1128.000000	0.870030
1127.000000	0.870119
1126.000000	0.869349
1125.000000	0.867913
1124.000000	0.868996
1123.000000	0.869041
1122.000000	0.867557
1121.000000	0.867782
1120.000000	0.867665
1119.000000	0.868201
1118.000000	0.865631
1117.000000	0.867191
1116.000000	0.867347
1115.000000	0.867467
1114.000000	0.867003
1113.000000	0.864841
1112.000000	0.866423
1111.000000	0.865585
1110.000000	0.865888
1109.000000	0.867110
1108.000000	0.867113
1107.000000	0.865589
1106.000000	0.863347
1105.000000	0.864404
1104.000000	0.863547
1103.000000	0.864572
1102.000000	0.864793
1101.000000	0.863236
1100.000000	0.863952
1099.000000	0.864079
1098.000000	0.862236
1097.000000	0.861438
1096.000000	0.862286
1095.000000	0.861729
1094.000000	0.862710
1093.000000	0.862171
1092.000000	0.861550
1091.000000	0.860444
1090.000000	0.858668
1089.000000	0.860303
1088.000000	0.860855
1087.000000	0.858754
1086.000000	0.860179
1085.000000	0.860582
1084.000000	0.859826
1083.000000	0.857251
1082.000000	0.860326
1081.000000	0.858084
1080.000000	0.858129
1079.000000	0.857732
1078.000000	0.857563
1077.000000	0.855621
1076.000000	0.857941
1075.000000	0.857175
1074.000000	0.858057
1073.000000	0.855327
1072.000000	0.857319
1071.000000	0.855427
1070.000000	0.856088
1069.000000	0.856109
1068.000000	0.854995
1067.000000	0.857644
1066.000000	0.853967
1065.000000	0.854181
1064.000000	0.853303
1063.000000	0.853791
1062.000000	0.851059
1061.000000	0.854519
1060.000000	0.852878
1059.000000	0.852760
1058.000000	0.853768
1057.000000	0.851720
1056.000000	0.851191
1055.000000	0.850794
1054.000000	0.850163
1053.000000	0.851490
1052.000000	0.852524
1051.000000	0.851259
1050.000000	0.851837
1049.000000	0.851767
1048.000000	0.850894
1047.000000	0.853012
1046.000000	0.848848
1045.000000	0.848936
1044.000000	0.848106
1043.000000	0.848787
1042.000000	0.851465
1041.000000	0.851853
1040.000000	0.848556
1039.000000	0.849921
1038.000000	0.846974
1037.000000	0.849220
1036.000000	0.845821
1035.000000	0.847627
1034.000000	0.847376
1033.000000	0.850357
1032.000000	0.846639
1031.000000	0.844460
1030.000000	0.846946
1029.000000	0.843214
1028.000000	0.845341
1027.000000	0.847139
1026.000000	0.844839
1025.000000	0.846032
1024.000000	0.841979
1023.000000	0.846466
1022.000000	0.844851
1021.000000	0.842479
1020.000000	0.846001
1019.000000	0.843596
1018.000000	0.842512
1017.000000	0.843240
1016.000000	0.840978
1015.000000	0.841680
1014.000000	0.841714
1013.000000	0.842168
1012.000000	0.843316
1011.000000	0.841134
1010.000000	0.840206
1009.000000	0.840452
1008.000000	0.841941
1007.000000	0.837914
1006.000000	0.840416
1005.000000	0.839766
1004.000000	0.839311
1003.000000	0.837336
1002.000000	0.836068
1001.000000	0.839073
1000.000000	0.839968
999.000000	0.835898
998.000000	0.832867
997.000000	0.837118
996.000000	0.836285
995.000000	0.836485
994.000000	0.835218
993.000000	0.836562
992.000000	0.837710
991.000000	0.835981
990.000000	0.834989
989.000000	0.836977
988.000000	0.837529
987.000000	0.833343
986.000000	0.837429
985.000000	0.832887
984.000000	0.831541
983.000000	0.833219
982.000000	0.833909
981.000000	0.831882
980.000000	0.831874
979.000000	0.833430
978.000000	0.836576
977.000000	0.833314
976.000000	0.835106
975.000000	0.834978
974.000000	0.832403
973.000000	0.831141
972.000000	0.831104
971.000000	0.831570
970.000000	0.830860
969.000000	0.830896
968.000000	0.831213
967.000000	0.826505
966.000000	0.826269
965.000000	0.829744
964.000000	0.828968
963.000000	0.825596
962.000000	0.824586
961.000000	0.828374
960.000000	0.825320
959.000000	0.827522
958.000000	0.827939
957.000000	0.829177
956.000000	0.826074
955.000000	0.825457
954.000000	0.824147
953.000000	0.825651
952.000000	0.826302
951.000000	0.824467
950.000000	0.828200
949.000000	0.823491
948.000000	0.820920
947.000000	0.824566
946.000000	0.825880
945.000000	0.827926
944.000000	0.825609
943.000000	0.822357
942.000000	0.819696
941.000000	0.817380
940.000000	0.818787
939.000000	0.822923
938.000000	0.825300
937.000000	0.821077
936.000000	0.819519
935.000000	0.821666
934.000000	0.817966
933.000000	0.818632
932.000000	0.822785
931.000000	0.821498
930.000000	0.819261
929.000000	0.818123
928.000000	0.821781
927.000000	0.826283
926.000000	0.819936
925.000000	0.813516
924.000000	0.812797
923.000000	0.813528
922.000000	0.813978
921.000000	0.814074
920.000000	0.813583
919.000000	0.817362
918.000000	0.814866
917.000000	0.814857
916.000000	0.820066
915.000000	0.815598
914.000000	0.814431
913.000000	0.814946
912.000000	0.815349
911.000000	0.810855
910.000000	0.810528
909.000000	0.814329
908.000000	0.813995
907.000000	0.807483
906.000000	0.805142
905.000000	0.819416
904.000000	0.822234
903.000000	0.817118
902.000000	0.814346
901.000000	0.809304
900.000000	0.804055
899.000000	0.793768
898.000000	0.795880
897.000000	0.801018
896.000000	0.801687
895.000000	0.806364
894.000000	0.797362
893.000000	0.806136
892.000000	0.810006
891.000000	0.815880
890.000000	0.808905
889.000000	0.805870
888.000000	0.810254
887.000000	0.810835
886.000000	0.803190
885.000000	0.802449
884.000000	0.803762
883.000000	0.796356
882.000000	0.794660
881.000000	0.801447
880.000000	0.803597
879.000000	0.787055
878.000000	0.814140
877.000000	0.826750
876.000000	0.817683
875.000000	0.809430
874.000000	0.822715
873.000000	0.821812
872.000000	0.798133
871.000000	0.807695
870.000000	0.796046
869.000000	0.794598
868.000000	0.785369
867.000000	0.783560
866.000000	0.773973
865.000000	0.802215
864.000000	0.825875
863.000000	0.803554
862.000000	0.820508
861.000000	0.827542
860.000000	0.822179
859.000000	0.827283
858.000000	0.831854
857.000000	0.840679
856.000000	0.834958
855.000000	0.832297
854.000000	0.832229
853.000000	0.827363
852.000000	0.829003
851.000000	0.834768
850.000000	0.831933
849.000000	0.827944
848.000000	0.828250
847.000000	0.824936
846.000000	0.823048
845.000000	0.822165
844.000000	0.824894
843.000000	0.823138
842.000000	0.822819
841.000000	0.819771
840.000000	0.817676
839.000000	0.814458
838.000000	0.817874
837.000000	0.820309
836.000000	0.818730
835.000000	0.817892
834.000000	0.816092
833.000000	0.816258
832.000000	0.816937
831.000000	0.812997
830.000000	0.815517
829.000000	0.812557
828.000000	0.814935
827.000000	0.812943
826.000000	0.812185
825.000000	0.810881
824.000000	0.814227
823.000000	0.814462
822.000000	0.813701
821.000000	0.811736
820.000000	0.810464
819.000000	0.811350
818.000000	0.806644
817.000000	0.807877
816.000000	0.809422
815.000000	0.809197
814.000000	0.808090
813.000000	0.805794
812.000000	0.807297
811.000000	0.807200
810.000000	0.805634
809.000000	0.804588
808.000000	0.804372
807.000000	0.804775
806.000000	0.803715
805.000000	0.804518
804.000000	0.802706
803.000000	0.802212
802.000000	0.803927
801.000000	0.802966
800.000000	0.801353
799.000000	0.801645
798.000000	0.801264
797.000000	0.801518
796.000000	0.799004
795.000000	0.799948
794.000000	0.800376
793.000000	0.799010
792.000000	0.798870
791.000000	0.800054
790.000000	0.799070
789.000000	0.797720
788.000000	0.797585
787.000000	0.797984
786.000000	0.796695
785.000000	0.796850
784.000000	0.797035
783.000000	0.794533
782.000000	0.794429
781.000000	0.793712
780.000000	0.796198
779.000000	0.793841
778.000000	0.795135
777.000000	0.794894
776.000000	0.791627
775.000000	0.791539
774.000000	0.790467
773.000000	0.790829
772.000000	0.793255
771.000000	0.790242
770.000000	0.791289
769.000000	0.790479
768.000000	0.790161
767.000000	0.788809
766.000000	0.788247
765.000000	0.787750
764.000000	0.788334
763.000000	0.787684
762.000000	0.787070
761.000000	0.786605
760.000000	0.785055
759.000000	0.785493
758.000000	0.787105
757.000000	0.783457
756.000000	0.783129
755.000000	0.784263
754.000000	0.783204
753.000000	0.782914
752.000000	0.783313
751.000000	0.783309
750.000000	0.782677
749.000000	0.782513
748.000000	0.781843
747.000000	0.781316
746.000000	0.779523
745.000000	0.778969
744.000000	0.778583
743.000000	0.778960
742.000000	0.777245
741.000000	0.777250
740.000000	0.777646
739.000000	0.775686
738.000000	0.777779
737.000000	0.776064
736.000000	0.774807
735.000000	0.774979
734.000000	0.774654
733.000000	0.773897
732.000000	0.774724
731.000000	0.773339
730.000000	0.771730
729.000000	0.770719
728.000000	0.772427
727.000000	0.770763
726.000000	0.771010
725.000000	0.769956
724.000000	0.769490
723.000000	0.768754
722.000000	0.768805
721.000000	0.767843
720.000000	0.768111
719.000000	0.767730
718.000000	0.768324
717.000000	0.767742
716.000000	0.766690
715.000000	0.765047
714.000000	0.765040
713.000000	0.765070
712.000000	0.763999
711.000000	0.763635
710.000000	0.762933
709.000000	0.762369
708.000000	0.762127
707.000000	0.761483
706.000000	0.761774
705.000000	0.760533
704.000000	0.760448
703.000000	0.759746
702.000000	0.759501
701.000000	0.759340
700.000000	0.758290
699.000000	0.757814
698.000000	0.757628
697.000000	0.757222
696.000000	0.756125
695.000000	0.755919
694.000000	0.755686
693.000000	0.754346
692.000000	0.754064
691.000000	0.753760
690.000000	0.753427
689.000000	0.753573
688.000000	0.752691
687.000000	0.751899
686.000000	0.751769
685.000000	0.751343
684.000000	0.750145
683.000000	0.750021
682.000000	0.749981
681.000000	0.749147
680.000000	0.748372
679.000000	0.747632
678.000000	0.747189
677.000000	0.746872
676.000000	0.746209
675.000000	0.745615
674.000000	0.744645
673.000000	0.744759
672.000000	0.745148
671.000000	0.744214
670.000000	0.743289
669.000000	0.742519
668.000000	0.742175
667.000000	0.741675
666.000000	0.740995
665.000000	0.740294
664.000000	0.739504
663.000000	0.739526
662.000000	0.739699
661.000000	0.738908
660.000000	0.738241
659.000000	0.737571
658.000000	0.736928
657.000000	0.736552
656.000000	0.735999
655.000000	0.735117
654.000000	0.734989
653.000000	0.734313
652.000000	0.733741
651.000000	0.733584
650.000000	0.733063
649.000000	0.732436
648.000000	0.731822
647.000000	0.731752
646.000000	0.731510
645.000000	0.730785
644.000000	0.730208
643.000000	0.729648
642.000000	0.728858
641.000000	0.728029
640.000000	0.727371
639.000000	0.726892
638.000000	0.726888
637.000000	0.726400
636.000000	0.725459
635.000000	0.724942
634.000000	0.724275
633.000000	0.723432
632.000000	0.723263
631.000000	0.722975
630.000000	0.722330
629.000000	0.722067
628.000000	0.721376
627.000000	0.720375
626.000000	0.719285
625.000000	0.719047
624.000000	0.718728
623.000000	0.718206
622.000000	0.718106
621.000000	0.717759
620.000000	0.716911
619.000000	0.716245
618.000000	0.715438
617.000000	0.715004
616.000000	0.714604
615.000000	0.714221
614.000000	0.713793
613.000000	0.713122
612.000000	0.712457
611.000000	0.712038
610.000000	0.711483
609.000000	0.710824
608.000000	0.710501
607.000000	0.709794
606.000000	0.709358
605.000000	0.709315
604.000000	0.709091
603.000000	0.708426
602.000000	0.708112
601.000000	0.707598
600.000000	0.707476
599.000000	0.707402
598.000000	0.707159
597.000000	0.707293
596.000000	0.707925
595.000000	0.707966
594.000000	0.708120
593.000000	0.708172
592.000000	0.708782
591.000000	0.709591
590.000000	0.710217
589.000000	0.711288
588.000000	0.711692
587.000000	0.713355
586.000000	0.714461
585.000000	0.715472
584.000000	0.716688
583.000000	0.718537
582.000000	0.719926
581.000000	0.721000
580.000000	0.721297
579.000000	0.722622
578.000000	0.723717
577.000000	0.724181
576.000000	0.725060
575.000000	0.725063
574.000000	0.725301
573.000000	0.725208
572.000000	0.724788
571.000000	0.724749
570.000000	0.724404
569.000000	0.723957
568.000000	0.723816
567.000000	0.723405
566.000000	0.722774
565.000000	0.722153
564.000000	0.722355
563.000000	0.721409
562.000000	0.721165
561.000000	0.720157
560.000000	0.719795
559.000000	0.719432
558.000000	0.718472
557.000000	0.717430
556.000000	0.716728
555.000000	0.715796
554.000000	0.714753
553.000000	0.714051
552.000000	0.713464
551.000000	0.712873
550.000000	0.711964
549.000000	0.710768
548.000000	0.710216
547.000000	0.710051
546.000000	0.708872
545.000000	0.708521
544.000000	0.707167
543.000000	0.706235
542.000000	0.705526
541.000000	0.704546
540.000000	0.704459
539.000000	0.703693
538.000000	0.702613
537.000000	0.701929
536.000000	0.701822
535.000000	0.701224
534.000000	0.700688
533.000000	0.700148
532.000000	0.699169
531.000000	0.699025
530.000000	0.698272
529.000000	0.697159
528.000000	0.696904
527.000000	0.696411
526.000000	0.695821
525.000000	0.695040
524.000000	0.694464
523.000000	0.693671
522.000000	0.693206
521.000000	0.692453
520.000000	0.691424
519.000000	0.690811
518.000000	0.689762
517.000000	0.688777
516.000000	0.688062
515.000000	0.687089
514.000000	0.685937
513.000000	0.684308
512.000000	0.683768
511.000000	0.683280
510.000000	0.682159
509.000000	0.681452
508.000000	0.680855
507.000000	0.678862
506.000000	0.679904
505.000000	0.678612
504.000000	0.678422
503.000000	0.678570
502.000000	0.679327
501.000000	0.680094
500.000000	0.681277
499.000000	0.682080
498.000000	0.683360
497.000000	0.685818
496.000000	0.686922
495.000000	0.688658
494.000000	0.691248
493.000000	0.693425
492.000000	0.695351
491.000000	0.697772
490.000000	0.699057
489.000000	0.700544
488.000000	0.702254
487.000000	0.703759
486.000000	0.704501
485.000000	0.706045
484.000000	0.706761
483.000000	0.707877
482.000000	0.707713
481.000000	0.707435
480.000000	0.707695
479.000000	0.707162
478.000000	0.706798
477.000000	0.705954
476.000000	0.705295
475.000000	0.704668
474.000000	0.703890
473.000000	0.702826
472.000000	0.702275
471.000000	0.700294
470.000000	0.699214
469.000000	0.698685
468.000000	0.697010
467.000000	0.695924
466.000000	0.694785
465.000000	0.693657
464.000000	0.692112
463.000000	0.691299
462.000000	0.690509
461.000000	0.688951
460.000000	0.687885
459.000000	0.687302
458.000000	0.685970
457.000000	0.685271
456.000000	0.684946
455.000000	0.683663
454.000000	0.682667
453.000000	0.682347
452.000000	0.681647
451.000000	0.680803
450.000000	0.679801
449.000000	0.678875
448.000000	0.678599
447.000000	0.677640
446.000000	0.676253
445.000000	0.675393
444.000000	0.675025
443.000000	0.674301
442.000000	0.673304
441.000000	0.672015
440.000000	0.671155
439.000000	0.670485
438.000000	0.669035
437.000000	0.667736
436.000000	0.666690
435.000000	0.665643
434.000000	0.664418
433.000000	0.663482
432.000000	0.661982
431.000000	0.660318
430.000000	0.659344
429.000000	0.658467
428.000000	0.657448
427.000000	0.655813
426.000000	0.654816
425.000000	0.654130
424.000000	0.652903
423.000000	0.651490
422.000000	0.650678
421.000000	0.649902
420.000000	0.648712
419.000000	0.647251
418.000000	0.646514
417.000000	0.644975
416.000000	0.643430
415.000000	0.642649
414.000000	0.642145
413.000000	0.640983
412.000000	0.640092
411.000000	0.640066
410.000000	0.640225
409.000000	0.639780
408.000000	0.640273
407.000000	0.641402
406.000000	0.642706
405.000000	0.644609
404.000000	0.648043
403.000000	0.652874
402.000000	0.657540
401.000000	0.662859
400.000000	0.669411
399.000000	0.677611
398.000000	0.686910
397.000000	0.696383
396.000000	0.707971
395.000000	0.722010
394.000000	0.736106
393.000000	0.750783
392.000000	0.766831
391.000000	0.783747
390.000000	0.800982
389.000000	0.818418
388.000000	0.835248
387.000000	0.852517
386.000000	0.868366
385.000000	0.883814
384.000000	0.899966
383.000000	0.914725
382.000000	0.929745
381.000000	0.943029
380.000000	0.955821
379.000000	0.968911
378.000000	0.984058
377.000000	0.998439
376.000000	1.009899
375.000000	1.020034
374.000000	1.030295
373.000000	1.038983
372.000000	1.046263
371.000000	1.055660
370.000000	1.065574
369.000000	1.075606
368.000000	1.083211
367.000000	1.090331
366.000000	1.097894
365.000000	1.105652
364.000000	1.113049
363.000000	1.121263
362.000000	1.127877
361.000000	1.136075
360.000000	1.142053
359.000000	1.146846
358.000000	1.152412
357.000000	1.159365
356.000000	1.164900
355.000000	1.168719
354.000000	1.174177
353.000000	1.179083
352.000000	1.184545
351.000000	1.188247
350.000000	1.191097
349.000000	1.194581
348.000000	1.197770
347.000000	1.201266
346.000000	1.201103
345.000000	1.201953
344.000000	1.205743
343.000000	1.207107
342.000000	1.208684
341.000000	1.208989
340.000000	1.208800
339.000000	1.209346
338.000000	1.211115
337.000000	1.211865
336.000000	1.208429
335.000000	1.207103
334.000000	1.205862
333.000000	1.202984
332.000000	1.204858
331.000000	1.202443
330.000000	1.199089
329.000000	1.199999
328.000000	1.197129
327.000000	1.198030
326.000000	1.198247
325.000000	1.190148
324.000000	1.188408
323.000000	1.188373
322.000000	1.187229
321.000000	1.188121
320.000000	1.184446
319.000000	1.189081
318.000000	1.191445
317.000000	1.188069
316.000000	1.186621
315.000000	1.184277
314.000000	1.185059
313.000000	1.185256
312.000000	1.180118
311.000000	1.182244
310.000000	1.180880
309.000000	1.177822
308.000000	1.179544
307.000000	1.176099
306.000000	1.176786
305.000000	1.177011
304.000000	1.178828
303.000000	1.177521
302.000000	1.180064
301.000000	1.180931
300.000000	1.178883
299.000000	1.181753
298.000000	1.178677
297.000000	1.177155
296.000000	1.177767
295.000000	1.178428
294.000000	1.180726
293.000000	1.182069
292.000000	1.182571
291.000000	1.180844
290.000000	1.180016
289.000000	1.187236
288.000000	1.183546
287.000000	1.181064
286.000000	1.180210
285.000000	1.179177
284.000000	1.184486
283.000000	1.184469
282.000000	1.182538
281.000000	1.182913
280.000000	1.179433
279.000000	1.180428
278.000000	1.179317
277.000000	1.179176
276.000000	1.179509
275.000000	1.177565
274.000000	1.176476
273.000000	1.176675
272.000000	1.175712
271.000000	1.176255
270.000000	1.171462
269.000000	1.173478
268.000000	1.173371
267.000000	1.174553
266.000000	1.171614
265.000000	1.170439
264.000000	1.171127
263.000000	1.170912
262.000000	1.167033
261.000000	1.168088
260.000000	1.167208
259.000000	1.165941
258.000000	1.166201
257.000000	1.166800
256.000000	1.167145
255.000000	1.164924
254.000000	1.165720
253.000000	1.164292
252.000000	1.162351
251.000000	1.164690
250.000000	1.162094
249.000000	1.158842
248.000000	1.161668
247.000000	1.160204
246.000000	1.160385
245.000000	1.156852
244.000000	1.159397
243.000000	1.157602
242.000000	1.156062
241.000000	1.156394
240.000000	1.153900
239.000000	1.156865
238.000000	1.151514
237.000000	1.153968
236.000000	1.154301
235.000000	1.151968
234.000000	1.149705
233.000000	1.147589
232.000000	1.146113
231.000000	1.146845
230.000000	1.142684
229.000000	1.143902
228.000000	1.141421
227.000000	1.140089
226.000000	1.137771
225.000000	1.138782
224.000000	1.136661
223.000000	1.130813
222.000000	1.131062
221.000000	1.130549
220.000000	1.128383
219.000000	1.128617
218.000000	1.125536
217.000000	1.124937
216.000000	1.121179
215.000000	1.120205
214.000000	1.120583
213.000000	1.119710
212.000000	1.114272
211.000000	1.111262
210.000000	1.108507
209.000000	1.104931
208.000000	1.103435
207.000000	1.102321
206.000000	1.101271
205.000000	1.098786
204.000000	1.092002
203.000000	1.084734
202.000000	1.084742
201.000000	1.076329
200.000000	1.073687
199.000000	1.063139
198.000000	1.063794
197.000000	1.059513
196.000000	1.052329
195.000000	1.042044
194.000000	1.020628
193.000000	1.005706
192.000000	0.968879
191.000000	0.933735
190.000000	0.829500
189.000000	0.627285
188.000000	0.347195
187.000000	0.066398
186.000000	0.029034
185.000000	0.016145
184.000000	-0.006305
183.000000	-0.002146
182.000000	0.010987
181.000000	0.007694
180.000000	0.010051
179.000000	0.005920
178.000000	0.006952
177.000000	0.010649
176.000000	-0.002459
175.000000	0.018371
