PE UV       SUBTECH     SPECTRUM    ASCII       PEDS        4.00        
   -1
Sample9.Sample.Raw.asc
25/05/30
12:52:04.00
25/05/30
12:52:04.00
tom jordan
DDQ R3
175.000000
1
Lambda 1050
1050L1807051
PerkinElmer UV WinLab 6.4.0.973 / 2.02.06 Lambda 900 UV/VIS/NIR, Jan 28 2016 16:58:34

0
0
3350/servo 860.8/2
0
0
UV/VIS
1
1
1
RBeamAtt,SBeamAtt,150mm sphere / downward view, WB InGaAs Detector
0
0
0
0
Program
Program
3350/servo 860.8/2
3350/0.2 860.8/0.2
3350/0.2 860.8/0.2
0
1.00
 
 
 
0
 
860.8
319.2
860.8
Front
100
 
S:100 R:100
 
0
0
0
 
0
 
 
 
0
 
 
0
0
0
0
0
 
 
 
 
0
0


0
0
#HDR
-1
-1
#GR
nm
A
1.0
0.0
2000.000000
-1.000000
1826
8
1.208447
-0.017632
#DATA
2000.000000	1.014083
1999.000000	1.008060
1998.000000	0.998632
1997.000000	1.006584
1996.000000	1.000015
1995.000000	0.998976
1994.000000	0.998517
1993.000000	1.003783
1992.000000	1.000115
1991.000000	1.007125
1990.000000	1.005699
1989.000000	0.996603
1988.000000	1.011876
1987.000000	1.010730
1986.000000	0.997365
1985.000000	1.002400
1984.000000	0.999776
1983.000000	1.007676
1982.000000	0.999894
1981.000000	1.000376
1980.000000	0.997417
1979.000000	1.000691
1978.000000	1.001551
1977.000000	1.000148
1976.000000	1.007598
1975.000000	0.998697
1974.000000	1.000444
1973.000000	1.000095
1972.000000	1.005952
1971.000000	1.009687
1970.000000	0.994613
1969.000000	1.006922
1968.000000	1.005577
1967.000000	1.012901
1966.000000	1.003407
1965.000000	1.005363
1964.000000	0.997865
1963.000000	1.000461
1962.000000	0.997850
1961.000000	0.993591
1960.000000	0.998606
1959.000000	0.996632
1958.000000	1.008512
1957.000000	1.001146
1956.000000	0.993149
1955.000000	1.002835
1954.000000	1.008630
1953.000000	1.001580
1952.000000	0.998480
1951.000000	1.005014
1950.000000	1.007309
1949.000000	1.001424
1948.000000	0.998971
1947.000000	1.000055
1946.000000	1.000010
1945.000000	1.000636
1944.000000	0.991946
1943.000000	0.986825
1942.000000	0.994230
1941.000000	1.008149
1940.000000	0.994220
1939.000000	0.996724
1938.000000	0.991904
1937.000000	0.987086
1936.000000	0.990204
1935.000000	0.991624
1934.000000	0.988043
1933.000000	0.973976
1932.000000	0.994803
1931.000000	0.997789
1930.000000	0.998800
1929.000000	0.984553
1928.000000	0.982611
1927.000000	1.004674
1926.000000	0.996902
1925.000000	0.989639
1924.000000	0.999973
1923.000000	0.994895
1922.000000	0.984849
1921.000000	0.976864
1920.000000	0.991875
1919.000000	0.993908
1918.000000	0.996368
1917.000000	0.983100
1916.000000	0.992874
1915.000000	0.998721
1914.000000	0.989901
1913.000000	0.991769
1912.000000	0.987972
1911.000000	0.999061
1910.000000	0.991255
1909.000000	0.985185
1908.000000	0.982473
1907.000000	0.992669
1906.000000	0.995977
1905.000000	0.984434
1904.000000	0.993366
1903.000000	0.993239
1902.000000	0.989536
1901.000000	0.988072
1900.000000	0.987355
1899.000000	0.994632
1898.000000	0.979339
1897.000000	0.976635
1896.000000	0.983270
1895.000000	0.990249
1894.000000	0.997740
1893.000000	1.002180
1892.000000	0.995098
1891.000000	0.990853
1890.000000	0.989001
1889.000000	0.977802
1888.000000	0.979114
1887.000000	0.983495
1886.000000	0.987944
1885.000000	0.991355
1884.000000	0.992267
1883.000000	0.996614
1882.000000	0.989024
1881.000000	0.981380
1880.000000	0.983122
1879.000000	0.991705
1878.000000	0.986251
1877.000000	0.983575
1876.000000	0.993314
1875.000000	0.987288
1874.000000	0.983327
1873.000000	0.984796
1872.000000	0.995489
1871.000000	0.990894
1870.000000	0.980351
1869.000000	0.980654
1868.000000	0.981043
1867.000000	0.991658
1866.000000	0.988868
1865.000000	0.987711
1864.000000	0.990319
1863.000000	0.987314
1862.000000	0.989981
1861.000000	0.990690
1860.000000	0.995310
1859.000000	0.990133
1858.000000	0.986638
1857.000000	0.978584
1856.000000	0.977778
1855.000000	0.982209
1854.000000	0.980137
1853.000000	0.992943
1852.000000	0.992354
1851.000000	0.986411
1850.000000	0.984369
1849.000000	0.987832
1848.000000	0.984148
1847.000000	0.981720
1846.000000	0.986568
1845.000000	0.990340
1844.000000	0.990596
1843.000000	0.991238
1842.000000	0.988893
1841.000000	0.981386
1840.000000	0.978532
1839.000000	0.982826
1838.000000	0.983478
1837.000000	0.988916
1836.000000	0.987404
1835.000000	0.984624
1834.000000	0.990178
1833.000000	0.987285
1832.000000	0.989391
1831.000000	0.990719
1830.000000	0.995094
1829.000000	0.992441
1828.000000	0.988140
1827.000000	0.990679
1826.000000	0.986502
1825.000000	0.988907
1824.000000	0.987280
1823.000000	0.991660
1822.000000	0.986973
1821.000000	0.990475
1820.000000	0.996071
1819.000000	0.994009
1818.000000	0.992434
1817.000000	0.982589
1816.000000	0.991882
1815.000000	0.995094
1814.000000	0.987477
1813.000000	0.992044
1812.000000	0.992968
1811.000000	0.996265
1810.000000	0.985916
1809.000000	0.989279
1808.000000	0.988427
1807.000000	0.989915
1806.000000	0.993661
1805.000000	0.989903
1804.000000	0.989478
1803.000000	0.989416
1802.000000	0.992720
1801.000000	0.987224
1800.000000	0.986584
1799.000000	0.984509
1798.000000	0.986511
1797.000000	0.986455
1796.000000	0.988440
1795.000000	0.988702
1794.000000	0.984649
1793.000000	0.984440
1792.000000	0.989063
1791.000000	0.989621
1790.000000	0.986289
1789.000000	0.981141
1788.000000	0.985420
1787.000000	0.984154
1786.000000	0.987320
1785.000000	0.986727
1784.000000	0.981580
1783.000000	0.985863
1782.000000	0.984618
1781.000000	0.984292
1780.000000	0.979389
1779.000000	0.990152
1778.000000	0.985887
1777.000000	0.987762
1776.000000	0.984173
1775.000000	0.979123
1774.000000	0.977676
1773.000000	0.976701
1772.000000	0.987176
1771.000000	0.989433
1770.000000	0.981179
1769.000000	0.981989
1768.000000	0.982840
1767.000000	0.977062
1766.000000	0.978706
1765.000000	0.976302
1764.000000	0.981234
1763.000000	0.979415
1762.000000	0.979207
1761.000000	0.974510
1760.000000	0.980850
1759.000000	0.984107
1758.000000	0.979943
1757.000000	0.988132
1756.000000	0.973437
1755.000000	0.986393
1754.000000	0.979465
1753.000000	0.980544
1752.000000	0.978994
1751.000000	0.973638
1750.000000	0.979927
1749.000000	0.970732
1748.000000	0.977006
1747.000000	0.979872
1746.000000	0.981683
1745.000000	0.979230
1744.000000	0.974190
1743.000000	0.981072
1742.000000	0.979716
1741.000000	0.980054
1740.000000	0.977448
1739.000000	0.978781
1738.000000	0.979656
1737.000000	0.976220
1736.000000	0.982359
1735.000000	0.974758
1734.000000	0.979395
1733.000000	0.979050
1732.000000	0.980470
1731.000000	0.977579
1730.000000	0.975194
1729.000000	0.978271
1728.000000	0.979506
1727.000000	0.977152
1726.000000	0.972348
1725.000000	0.975986
1724.000000	0.975582
1723.000000	0.972795
1722.000000	0.975326
1721.000000	0.973471
1720.000000	0.976758
1719.000000	0.973367
1718.000000	0.974585
1717.000000	0.977827
1716.000000	0.976248
1715.000000	0.975349
1714.000000	0.978136
1713.000000	0.977767
1712.000000	0.974617
1711.000000	0.978992
1710.000000	0.979047
1709.000000	0.975317
1708.000000	0.973184
1707.000000	0.974807
1706.000000	0.975363
1705.000000	0.971315
1704.000000	0.974588
1703.000000	0.974406
1702.000000	0.972610
1701.000000	0.973437
1700.000000	0.973786
1699.000000	0.973938
1698.000000	0.973416
1697.000000	0.975603
1696.000000	0.973714
1695.000000	0.972543
1694.000000	0.973595
1693.000000	0.973226
1692.000000	0.973554
1691.000000	0.971500
1690.000000	0.970613
1689.000000	0.970757
1688.000000	0.971673
1687.000000	0.975325
1686.000000	0.970914
1685.000000	0.970343
1684.000000	0.972423
1683.000000	0.972908
1682.000000	0.971568
1681.000000	0.973293
1680.000000	0.974046
1679.000000	0.969354
1678.000000	0.970020
1677.000000	0.969179
1676.000000	0.970570
1675.000000	0.970028
1674.000000	0.970018
1673.000000	0.970208
1672.000000	0.967638
1671.000000	0.969501
1670.000000	0.972477
1669.000000	0.969007
1668.000000	0.970159
1667.000000	0.972497
1666.000000	0.971209
1665.000000	0.968861
1664.000000	0.967178
1663.000000	0.970004
1662.000000	0.967624
1661.000000	0.969373
1660.000000	0.968650
1659.000000	0.969984
1658.000000	0.970910
1657.000000	0.969457
1656.000000	0.972309
1655.000000	0.972459
1654.000000	0.969662
1653.000000	0.966702
1652.000000	0.964698
1651.000000	0.966738
1650.000000	0.969802
1649.000000	0.971148
1648.000000	0.970117
1647.000000	0.971241
1646.000000	0.969049
1645.000000	0.965853
1644.000000	0.969216
1643.000000	0.968607
1642.000000	0.967079
1641.000000	0.966160
1640.000000	0.965812
1639.000000	0.965560
1638.000000	0.962646
1637.000000	0.963362
1636.000000	0.966227
1635.000000	0.966372
1634.000000	0.965762
1633.000000	0.965637
1632.000000	0.965237
1631.000000	0.965819
1630.000000	0.965506
1629.000000	0.963422
1628.000000	0.966088
1627.000000	0.967176
1626.000000	0.966377
1625.000000	0.964928
1624.000000	0.962190
1623.000000	0.964589
1622.000000	0.964226
1621.000000	0.962406
1620.000000	0.965163
1619.000000	0.965881
1618.000000	0.963509
1617.000000	0.963172
1616.000000	0.964905
1615.000000	0.963220
1614.000000	0.963874
1613.000000	0.962166
1612.000000	0.961653
1611.000000	0.963319
1610.000000	0.962173
1609.000000	0.961501
1608.000000	0.959483
1607.000000	0.959452
1606.000000	0.961561
1605.000000	0.961494
1604.000000	0.961007
1603.000000	0.957715
1602.000000	0.960249
1601.000000	0.959719
1600.000000	0.959010
1599.000000	0.961279
1598.000000	0.959110
1597.000000	0.959917
1596.000000	0.960183
1595.000000	0.963668
1594.000000	0.963157
1593.000000	0.960340
1592.000000	0.962023
1591.000000	0.958678
1590.000000	0.959900
1589.000000	0.960461
1588.000000	0.960338
1587.000000	0.961999
1586.000000	0.957312
1585.000000	0.957060
1584.000000	0.958140
1583.000000	0.959331
1582.000000	0.960834
1581.000000	0.958615
1580.000000	0.959326
1579.000000	0.958895
1578.000000	0.959201
1577.000000	0.958341
1576.000000	0.956889
1575.000000	0.955910
1574.000000	0.956368
1573.000000	0.959591
1572.000000	0.956215
1571.000000	0.955704
1570.000000	0.954628
1569.000000	0.954778
1568.000000	0.952975
1567.000000	0.956911
1566.000000	0.957594
1565.000000	0.956656
1564.000000	0.955297
1563.000000	0.958121
1562.000000	0.954511
1561.000000	0.957193
1560.000000	0.953262
1559.000000	0.955054
1558.000000	0.953514
1557.000000	0.950176
1556.000000	0.954944
1555.000000	0.952473
1554.000000	0.955753
1553.000000	0.954050
1552.000000	0.952705
1551.000000	0.951121
1550.000000	0.954262
1549.000000	0.954118
1548.000000	0.948628
1547.000000	0.954298
1546.000000	0.954144
1545.000000	0.953054
1544.000000	0.953347
1543.000000	0.951667
1542.000000	0.952339
1541.000000	0.952941
1540.000000	0.951318
1539.000000	0.954002
1538.000000	0.952127
1537.000000	0.948932
1536.000000	0.948498
1535.000000	0.952477
1534.000000	0.950516
1533.000000	0.949663
1532.000000	0.951155
1531.000000	0.951944
1530.000000	0.948353
1529.000000	0.946216
1528.000000	0.949443
1527.000000	0.945714
1526.000000	0.948254
1525.000000	0.948539
1524.000000	0.946609
1523.000000	0.948380
1522.000000	0.948752
1521.000000	0.952840
1520.000000	0.948901
1519.000000	0.949160
1518.000000	0.948737
1517.000000	0.947954
1516.000000	0.947485
1515.000000	0.943966
1514.000000	0.946964
1513.000000	0.949775
1512.000000	0.947950
1511.000000	0.948264
1510.000000	0.947766
1509.000000	0.944202
1508.000000	0.946918
1507.000000	0.949058
1506.000000	0.948004
1505.000000	0.945822
1504.000000	0.946057
1503.000000	0.946909
1502.000000	0.945499
1501.000000	0.943024
1500.000000	0.942101
1499.000000	0.945499
1498.000000	0.942703
1497.000000	0.944903
1496.000000	0.942451
1495.000000	0.945339
1494.000000	0.942728
1493.000000	0.942732
1492.000000	0.942393
1491.000000	0.940563
1490.000000	0.942009
1489.000000	0.942212
1488.000000	0.941274
1487.000000	0.941347
1486.000000	0.940358
1485.000000	0.941426
1484.000000	0.939695
1483.000000	0.942331
1482.000000	0.941991
1481.000000	0.942830
1480.000000	0.941045
1479.000000	0.940968
1478.000000	0.942780
1477.000000	0.938749
1476.000000	0.940806
1475.000000	0.942058
1474.000000	0.939047
1473.000000	0.939501
1472.000000	0.940105
1471.000000	0.938812
1470.000000	0.934718
1469.000000	0.936440
1468.000000	0.937234
1467.000000	0.939973
1466.000000	0.939247
1465.000000	0.939546
1464.000000	0.939467
1463.000000	0.936002
1462.000000	0.937640
1461.000000	0.938873
1460.000000	0.938188
1459.000000	0.939454
1458.000000	0.940392
1457.000000	0.938148
1456.000000	0.933915
1455.000000	0.936708
1454.000000	0.937699
1453.000000	0.936881
1452.000000	0.934700
1451.000000	0.934667
1450.000000	0.937463
1449.000000	0.935085
1448.000000	0.933315
1447.000000	0.935708
1446.000000	0.937015
1445.000000	0.936524
1444.000000	0.934151
1443.000000	0.935204
1442.000000	0.936107
1441.000000	0.935845
1440.000000	0.934952
1439.000000	0.933021
1438.000000	0.932105
1437.000000	0.932170
1436.000000	0.933672
1435.000000	0.932150
1434.000000	0.932075
1433.000000	0.932223
1432.000000	0.931269
1431.000000	0.930905
1430.000000	0.930379
1429.000000	0.930517
1428.000000	0.930987
1427.000000	0.930652
1426.000000	0.930760
1425.000000	0.932264
1424.000000	0.932905
1423.000000	0.930543
1422.000000	0.930901
1421.000000	0.930782
1420.000000	0.929542
1419.000000	0.928355
1418.000000	0.929651
1417.000000	0.931599
1416.000000	0.930821
1415.000000	0.928827
1414.000000	0.927938
1413.000000	0.927728
1412.000000	0.928066
1411.000000	0.930297
1410.000000	0.930062
1409.000000	0.928575
1408.000000	0.929905
1407.000000	0.928935
1406.000000	0.927581
1405.000000	0.928802
1404.000000	0.928960
1403.000000	0.928413
1402.000000	0.927727
1401.000000	0.926407
1400.000000	0.925392
1399.000000	0.925761
1398.000000	0.927028
1397.000000	0.926928
1396.000000	0.924942
1395.000000	0.924573
1394.000000	0.925836
1393.000000	0.924957
1392.000000	0.923493
1391.000000	0.922346
1390.000000	0.924118
1389.000000	0.926162
1388.000000	0.925846
1387.000000	0.925263
1386.000000	0.924221
1385.000000	0.924051
1384.000000	0.924875
1383.000000	0.925067
1382.000000	0.924855
1381.000000	0.923877
1380.000000	0.924834
1379.000000	0.922625
1378.000000	0.922435
1377.000000	0.923137
1376.000000	0.921682
1375.000000	0.921311
1374.000000	0.921112
1373.000000	0.920620
1372.000000	0.921451
1371.000000	0.922504
1370.000000	0.919703
1369.000000	0.919942
1368.000000	0.919943
1367.000000	0.919578
1366.000000	0.918646
1365.000000	0.919064
1364.000000	0.920207
1363.000000	0.918867
1362.000000	0.919257
1361.000000	0.921935
1360.000000	0.919699
1359.000000	0.918756
1358.000000	0.919092
1357.000000	0.918406
1356.000000	0.917495
1355.000000	0.917496
1354.000000	0.915499
1353.000000	0.916922
1352.000000	0.918654
1351.000000	0.919256
1350.000000	0.920207
1349.000000	0.919466
1348.000000	0.918654
1347.000000	0.919356
1346.000000	0.918124
1345.000000	0.916412
1344.000000	0.916756
1343.000000	0.917220
1342.000000	0.917835
1341.000000	0.917345
1340.000000	0.918228
1339.000000	0.917125
1338.000000	0.917078
1337.000000	0.916421
1336.000000	0.916205
1335.000000	0.915774
1334.000000	0.914858
1333.000000	0.915540
1332.000000	0.914626
1331.000000	0.915811
1330.000000	0.915033
1329.000000	0.914395
1328.000000	0.914015
1327.000000	0.913908
1326.000000	0.914293
1325.000000	0.912639
1324.000000	0.912207
1323.000000	0.913795
1322.000000	0.912495
1321.000000	0.913578
1320.000000	0.911351
1319.000000	0.912621
1318.000000	0.912722
1317.000000	0.913036
1316.000000	0.911606
1315.000000	0.910918
1314.000000	0.910851
1313.000000	0.911915
1312.000000	0.910933
1311.000000	0.910265
1310.000000	0.911573
1309.000000	0.911724
1308.000000	0.911063
1307.000000	0.911627
1306.000000	0.908528
1305.000000	0.909141
1304.000000	0.909834
1303.000000	0.910304
1302.000000	0.910234
1301.000000	0.909404
1300.000000	0.907479
1299.000000	0.907279
1298.000000	0.907941
1297.000000	0.908003
1296.000000	0.907651
1295.000000	0.906765
1294.000000	0.905997
1293.000000	0.907218
1292.000000	0.906436
1291.000000	0.905985
1290.000000	0.906595
1289.000000	0.906142
1288.000000	0.906905
1287.000000	0.905548
1286.000000	0.905017
1285.000000	0.905383
1284.000000	0.903340
1283.000000	0.904216
1282.000000	0.905555
1281.000000	0.904055
1280.000000	0.903636
1279.000000	0.903618
1278.000000	0.905473
1277.000000	0.901616
1276.000000	0.902110
1275.000000	0.902633
1274.000000	0.901584
1273.000000	0.902369
1272.000000	0.902135
1271.000000	0.903659
1270.000000	0.901309
1269.000000	0.900944
1268.000000	0.900210
1267.000000	0.899964
1266.000000	0.899949
1265.000000	0.900529
1264.000000	0.899863
1263.000000	0.899606
1262.000000	0.897459
1261.000000	0.900535
1260.000000	0.898163
1259.000000	0.898976
1258.000000	0.897084
1257.000000	0.898344
1256.000000	0.896990
1255.000000	0.896203
1254.000000	0.897945
1253.000000	0.897220
1252.000000	0.896792
1251.000000	0.895781
1250.000000	0.897309
1249.000000	0.897979
1248.000000	0.897136
1247.000000	0.895026
1246.000000	0.895637
1245.000000	0.895351
1244.000000	0.894981
1243.000000	0.895289
1242.000000	0.896185
1241.000000	0.893309
1240.000000	0.893219
1239.000000	0.895304
1238.000000	0.894816
1237.000000	0.894020
1236.000000	0.893354
1235.000000	0.893992
1234.000000	0.892712
1233.000000	0.892051
1232.000000	0.892111
1231.000000	0.891780
1230.000000	0.892514
1229.000000	0.891590
1228.000000	0.890910
1227.000000	0.891952
1226.000000	0.890852
1225.000000	0.890317
1224.000000	0.890493
1223.000000	0.890727
1222.000000	0.891294
1221.000000	0.890150
1220.000000	0.890789
1219.000000	0.890446
1218.000000	0.891252
1217.000000	0.889452
1216.000000	0.888748
1215.000000	0.888132
1214.000000	0.888265
1213.000000	0.889794
1212.000000	0.887850
1211.000000	0.887409
1210.000000	0.886977
1209.000000	0.886371
1208.000000	0.887072
1207.000000	0.886489
1206.000000	0.885976
1205.000000	0.886638
1204.000000	0.886769
1203.000000	0.885577
1202.000000	0.885080
1201.000000	0.884961
1200.000000	0.884763
1199.000000	0.883566
1198.000000	0.883465
1197.000000	0.883886
1196.000000	0.884546
1195.000000	0.884147
1194.000000	0.884948
1193.000000	0.885756
1192.000000	0.884128
1191.000000	0.882379
1190.000000	0.881904
1189.000000	0.882580
1188.000000	0.883029
1187.000000	0.883252
1186.000000	0.882746
1185.000000	0.881860
1184.000000	0.881698
1183.000000	0.881459
1182.000000	0.880664
1181.000000	0.880315
1180.000000	0.880360
1179.000000	0.879377
1178.000000	0.880376
1177.000000	0.880374
1176.000000	0.879203
1175.000000	0.879533
1174.000000	0.879175
1173.000000	0.879804
1172.000000	0.879502
1171.000000	0.878088
1170.000000	0.877874
1169.000000	0.877177
1168.000000	0.877148
1167.000000	0.876790
1166.000000	0.877016
1165.000000	0.876806
1164.000000	0.875602
1163.000000	0.876288
1162.000000	0.876423
1161.000000	0.877098
1160.000000	0.877217
1159.000000	0.876056
1158.000000	0.875327
1157.000000	0.874197
1156.000000	0.875386
1155.000000	0.875093
1154.000000	0.873901
1153.000000	0.874074
1152.000000	0.873494
1151.000000	0.873422
1150.000000	0.872967
1149.000000	0.872653
1148.000000	0.872497
1147.000000	0.872548
1146.000000	0.872929
1145.000000	0.872421
1144.000000	0.872049
1143.000000	0.871306
1142.000000	0.871236
1141.000000	0.871721
1140.000000	0.870619
1139.000000	0.870834
1138.000000	0.871567
1137.000000	0.869273
1136.000000	0.868623
1135.000000	0.868762
1134.000000	0.869728
1133.000000	0.870149
1132.000000	0.868796
1131.000000	0.868561
1130.000000	0.868326
1129.000000	0.868143
1128.000000	0.867510
1127.000000	0.867297
1126.000000	0.867743
1125.000000	0.867772
1124.000000	0.868722
1123.000000	0.868743
1122.000000	0.868074
1121.000000	0.866377
1120.000000	0.865341
1119.000000	0.866560
1118.000000	0.866531
1117.000000	0.865322
1116.000000	0.864858
1115.000000	0.865439
1114.000000	0.865357
1113.000000	0.863775
1112.000000	0.864569
1111.000000	0.864886
1110.000000	0.863681
1109.000000	0.865126
1108.000000	0.863161
1107.000000	0.861936
1106.000000	0.861287
1105.000000	0.861989
1104.000000	0.863829
1103.000000	0.862905
1102.000000	0.861599
1101.000000	0.861446
1100.000000	0.860906
1099.000000	0.861364
1098.000000	0.859148
1097.000000	0.860454
1096.000000	0.860527
1095.000000	0.860507
1094.000000	0.861318
1093.000000	0.860091
1092.000000	0.859749
1091.000000	0.858431
1090.000000	0.856912
1089.000000	0.858796
1088.000000	0.858763
1087.000000	0.857873
1086.000000	0.856801
1085.000000	0.857001
1084.000000	0.856065
1083.000000	0.855110
1082.000000	0.856501
1081.000000	0.856798
1080.000000	0.855344
1079.000000	0.857166
1078.000000	0.855416
1077.000000	0.855530
1076.000000	0.854892
1075.000000	0.854323
1074.000000	0.854778
1073.000000	0.853118
1072.000000	0.854042
1071.000000	0.853266
1070.000000	0.854445
1069.000000	0.853888
1068.000000	0.852962
1067.000000	0.854624
1066.000000	0.852615
1065.000000	0.852091
1064.000000	0.850649
1063.000000	0.850762
1062.000000	0.851503
1061.000000	0.849348
1060.000000	0.851382
1059.000000	0.849169
1058.000000	0.848790
1057.000000	0.849682
1056.000000	0.851094
1055.000000	0.851174
1054.000000	0.850795
1053.000000	0.848142
1052.000000	0.850195
1051.000000	0.848744
1050.000000	0.847063
1049.000000	0.846613
1048.000000	0.846471
1047.000000	0.848711
1046.000000	0.846610
1045.000000	0.847334
1044.000000	0.847150
1043.000000	0.846284
1042.000000	0.846279
1041.000000	0.844992
1040.000000	0.846931
1039.000000	0.847595
1038.000000	0.844686
1037.000000	0.846009
1036.000000	0.845648
1035.000000	0.844462
1034.000000	0.843375
1033.000000	0.845474
1032.000000	0.847792
1031.000000	0.844084
1030.000000	0.842614
1029.000000	0.842036
1028.000000	0.843986
1027.000000	0.843299
1026.000000	0.841296
1025.000000	0.843519
1024.000000	0.839722
1023.000000	0.841915
1022.000000	0.839294
1021.000000	0.841993
1020.000000	0.839466
1019.000000	0.841236
1018.000000	0.837995
1017.000000	0.839112
1016.000000	0.840595
1015.000000	0.839824
1014.000000	0.838522
1013.000000	0.839810
1012.000000	0.838951
1011.000000	0.840227
1010.000000	0.839208
1009.000000	0.838628
1008.000000	0.835768
1007.000000	0.837506
1006.000000	0.836896
1005.000000	0.838214
1004.000000	0.834289
1003.000000	0.836343
1002.000000	0.837190
1001.000000	0.837413
1000.000000	0.836551
999.000000	0.835526
998.000000	0.834968
997.000000	0.831944
996.000000	0.836540
995.000000	0.834166
994.000000	0.833769
993.000000	0.833811
992.000000	0.833216
991.000000	0.835070
990.000000	0.834615
989.000000	0.829859
988.000000	0.829174
987.000000	0.831016
986.000000	0.833386
985.000000	0.833276
984.000000	0.833382
983.000000	0.829885
982.000000	0.831303
981.000000	0.830094
980.000000	0.828518
979.000000	0.828856
978.000000	0.832062
977.000000	0.828932
976.000000	0.828016
975.000000	0.825710
974.000000	0.828284
973.000000	0.828245
972.000000	0.828065
971.000000	0.829166
970.000000	0.829172
969.000000	0.828410
968.000000	0.826922
967.000000	0.824923
966.000000	0.827248
965.000000	0.827183
964.000000	0.827966
963.000000	0.826857
962.000000	0.821583
961.000000	0.821115
960.000000	0.822526
959.000000	0.824193
958.000000	0.825969
957.000000	0.824229
956.000000	0.823828
955.000000	0.824484
954.000000	0.823401
953.000000	0.824340
952.000000	0.823858
951.000000	0.822779
950.000000	0.821678
949.000000	0.822169
948.000000	0.822173
947.000000	0.819798
946.000000	0.820888
945.000000	0.820533
944.000000	0.822515
943.000000	0.821452
942.000000	0.817544
941.000000	0.818495
940.000000	0.821434
939.000000	0.820006
938.000000	0.817693
937.000000	0.821446
936.000000	0.823115
935.000000	0.818278
934.000000	0.817893
933.000000	0.817717
932.000000	0.816223
931.000000	0.812109
930.000000	0.809987
929.000000	0.814442
928.000000	0.814562
927.000000	0.814737
926.000000	0.814550
925.000000	0.816257
924.000000	0.817071
923.000000	0.813059
922.000000	0.811628
921.000000	0.814026
920.000000	0.811005
919.000000	0.812497
918.000000	0.812620
917.000000	0.807591
916.000000	0.807255
915.000000	0.807474
914.000000	0.809142
913.000000	0.810469
912.000000	0.809947
911.000000	0.809578
910.000000	0.805464
909.000000	0.807596
908.000000	0.810431
907.000000	0.807036
906.000000	0.802549
905.000000	0.806731
904.000000	0.804936
903.000000	0.800165
902.000000	0.803801
901.000000	0.810169
900.000000	0.807445
899.000000	0.808424
898.000000	0.804966
897.000000	0.802173
896.000000	0.797993
895.000000	0.800273
894.000000	0.802886
893.000000	0.802571
892.000000	0.803416
891.000000	0.797125
890.000000	0.792356
889.000000	0.795193
888.000000	0.798975
887.000000	0.801697
886.000000	0.799046
885.000000	0.798025
884.000000	0.796900
883.000000	0.780478
882.000000	0.790531
881.000000	0.791324
880.000000	0.795824
879.000000	0.797173
878.000000	0.788030
877.000000	0.784216
876.000000	0.769039
875.000000	0.775972
874.000000	0.782167
873.000000	0.790418
872.000000	0.787047
871.000000	0.784365
870.000000	0.787002
869.000000	0.775142
868.000000	0.775993
867.000000	0.785051
866.000000	0.781970
865.000000	0.801481
864.000000	0.806415
863.000000	0.800139
862.000000	0.802738
861.000000	0.813502
860.000000	0.829616
859.000000	0.830028
858.000000	0.831752
857.000000	0.834965
856.000000	0.839454
855.000000	0.836400
854.000000	0.832199
853.000000	0.829507
852.000000	0.829369
851.000000	0.825316
850.000000	0.821680
849.000000	0.824010
848.000000	0.823872
847.000000	0.824965
846.000000	0.821060
845.000000	0.821595
844.000000	0.821745
843.000000	0.815125
842.000000	0.820213
841.000000	0.821065
840.000000	0.818687
839.000000	0.816870
838.000000	0.816584
837.000000	0.814929
836.000000	0.814534
835.000000	0.813988
834.000000	0.815674
833.000000	0.815482
832.000000	0.816625
831.000000	0.814166
830.000000	0.813699
829.000000	0.813758
828.000000	0.816435
827.000000	0.811458
826.000000	0.811090
825.000000	0.812555
824.000000	0.811143
823.000000	0.813773
822.000000	0.809777
821.000000	0.809498
820.000000	0.809122
819.000000	0.807018
818.000000	0.805065
817.000000	0.804817
816.000000	0.808616
815.000000	0.805369
814.000000	0.808100
813.000000	0.805962
812.000000	0.807104
811.000000	0.805216
810.000000	0.805493
809.000000	0.804167
808.000000	0.805864
807.000000	0.805321
806.000000	0.803238
805.000000	0.804118
804.000000	0.802316
803.000000	0.802615
802.000000	0.801068
801.000000	0.802599
800.000000	0.801866
799.000000	0.799511
798.000000	0.798537
797.000000	0.800554
796.000000	0.797333
795.000000	0.798855
794.000000	0.797388
793.000000	0.798342
792.000000	0.796983
791.000000	0.798611
790.000000	0.796474
789.000000	0.796493
788.000000	0.797459
787.000000	0.796602
786.000000	0.796506
785.000000	0.794001
784.000000	0.794751
783.000000	0.792739
782.000000	0.793533
781.000000	0.793358
780.000000	0.792976
779.000000	0.793665
778.000000	0.792346
777.000000	0.792595
776.000000	0.789635
775.000000	0.792233
774.000000	0.790584
773.000000	0.789379
772.000000	0.790933
771.000000	0.789798
770.000000	0.789056
769.000000	0.788336
768.000000	0.787067
767.000000	0.785456
766.000000	0.787140
765.000000	0.786785
764.000000	0.786730
763.000000	0.786179
762.000000	0.785332
761.000000	0.785790
760.000000	0.785329
759.000000	0.784898
758.000000	0.784364
757.000000	0.782542
756.000000	0.782667
755.000000	0.782846
754.000000	0.781917
753.000000	0.781601
752.000000	0.781255
751.000000	0.782581
750.000000	0.781193
749.000000	0.781472
748.000000	0.780560
747.000000	0.778314
746.000000	0.778175
745.000000	0.776706
744.000000	0.777364
743.000000	0.777748
742.000000	0.776506
741.000000	0.776900
740.000000	0.776411
739.000000	0.774334
738.000000	0.775282
737.000000	0.773472
736.000000	0.774309
735.000000	0.773933
734.000000	0.773600
733.000000	0.773226
732.000000	0.772948
731.000000	0.771924
730.000000	0.771346
729.000000	0.769793
728.000000	0.769504
727.000000	0.770162
726.000000	0.769744
725.000000	0.769238
724.000000	0.768034
723.000000	0.767213
722.000000	0.766664
721.000000	0.766444
720.000000	0.767381
719.000000	0.766403
718.000000	0.766175
717.000000	0.765719
716.000000	0.765446
715.000000	0.764405
714.000000	0.763896
713.000000	0.763027
712.000000	0.762618
711.000000	0.762681
710.000000	0.761961
709.000000	0.762021
708.000000	0.761455
707.000000	0.760025
706.000000	0.760122
705.000000	0.759430
704.000000	0.759342
703.000000	0.759406
702.000000	0.758452
701.000000	0.757627
700.000000	0.757791
699.000000	0.756637
698.000000	0.755796
697.000000	0.755675
696.000000	0.756036
695.000000	0.755003
694.000000	0.754339
693.000000	0.753114
692.000000	0.752694
691.000000	0.752405
690.000000	0.752452
689.000000	0.751966
688.000000	0.751233
687.000000	0.751173
686.000000	0.750922
685.000000	0.750118
684.000000	0.749610
683.000000	0.749200
682.000000	0.748361
681.000000	0.747338
680.000000	0.746715
679.000000	0.746419
678.000000	0.745677
677.000000	0.745761
676.000000	0.745767
675.000000	0.744777
674.000000	0.743986
673.000000	0.743946
672.000000	0.743743
671.000000	0.743355
670.000000	0.742263
669.000000	0.741424
668.000000	0.740945
667.000000	0.740630
666.000000	0.740509
665.000000	0.739928
664.000000	0.738699
663.000000	0.738019
662.000000	0.738355
661.000000	0.738270
660.000000	0.737818
659.000000	0.736221
658.000000	0.735220
657.000000	0.735100
656.000000	0.734428
655.000000	0.734040
654.000000	0.733575
653.000000	0.733057
652.000000	0.732493
651.000000	0.731965
650.000000	0.731737
649.000000	0.731315
648.000000	0.730917
647.000000	0.730166
646.000000	0.729179
645.000000	0.728801
644.000000	0.728122
643.000000	0.727726
642.000000	0.727930
641.000000	0.727390
640.000000	0.726416
639.000000	0.725671
638.000000	0.725410
637.000000	0.725215
636.000000	0.724427
635.000000	0.723680
634.000000	0.723131
633.000000	0.722655
632.000000	0.722340
631.000000	0.721745
630.000000	0.720693
629.000000	0.720122
628.000000	0.719901
627.000000	0.719241
626.000000	0.718607
625.000000	0.718007
624.000000	0.717338
623.000000	0.716871
622.000000	0.716834
621.000000	0.716293
620.000000	0.715445
619.000000	0.715072
618.000000	0.714670
617.000000	0.713973
616.000000	0.713342
615.000000	0.713094
614.000000	0.712604
613.000000	0.711944
612.000000	0.711083
611.000000	0.710730
610.000000	0.710413
609.000000	0.709968
608.000000	0.709092
607.000000	0.708390
606.000000	0.708193
605.000000	0.708200
604.000000	0.707656
603.000000	0.707191
602.000000	0.706964
601.000000	0.706932
600.000000	0.706674
599.000000	0.706394
598.000000	0.706060
597.000000	0.705936
596.000000	0.705963
595.000000	0.706454
594.000000	0.706955
593.000000	0.707126
592.000000	0.707033
591.000000	0.707934
590.000000	0.708994
589.000000	0.710256
588.000000	0.710922
587.000000	0.711935
586.000000	0.712986
585.000000	0.714345
584.000000	0.715606
583.000000	0.717530
582.000000	0.718513
581.000000	0.720374
580.000000	0.720504
579.000000	0.721709
578.000000	0.722194
577.000000	0.723341
576.000000	0.723924
575.000000	0.723504
574.000000	0.723945
573.000000	0.724026
572.000000	0.723843
571.000000	0.723438
570.000000	0.723216
569.000000	0.722822
568.000000	0.722636
567.000000	0.722152
566.000000	0.721814
565.000000	0.721070
564.000000	0.720600
563.000000	0.719743
562.000000	0.719808
561.000000	0.719240
560.000000	0.718409
559.000000	0.717610
558.000000	0.717114
557.000000	0.716365
556.000000	0.715968
555.000000	0.715009
554.000000	0.713876
553.000000	0.713385
552.000000	0.712553
551.000000	0.712128
550.000000	0.711443
549.000000	0.710254
548.000000	0.709210
547.000000	0.709016
546.000000	0.708382
545.000000	0.707004
544.000000	0.705945
543.000000	0.705277
542.000000	0.704294
541.000000	0.704042
540.000000	0.703658
539.000000	0.702363
538.000000	0.701847
537.000000	0.701106
536.000000	0.700826
535.000000	0.700042
534.000000	0.699813
533.000000	0.699051
532.000000	0.698428
531.000000	0.698056
530.000000	0.697683
529.000000	0.696489
528.000000	0.695640
527.000000	0.695587
526.000000	0.694842
525.000000	0.694251
524.000000	0.693586
523.000000	0.692453
522.000000	0.691958
521.000000	0.691346
520.000000	0.690618
519.000000	0.689711
518.000000	0.688730
517.000000	0.687792
516.000000	0.686935
515.000000	0.685779
514.000000	0.684435
513.000000	0.683940
512.000000	0.682376
511.000000	0.681837
510.000000	0.680687
509.000000	0.679838
508.000000	0.679214
507.000000	0.678361
506.000000	0.678673
505.000000	0.677496
504.000000	0.678282
503.000000	0.678084
502.000000	0.678428
501.000000	0.679176
500.000000	0.680075
499.000000	0.681059
498.000000	0.682418
497.000000	0.683727
496.000000	0.685533
495.000000	0.687437
494.000000	0.689838
493.000000	0.692449
492.000000	0.693830
491.000000	0.696409
490.000000	0.698136
489.000000	0.699411
488.000000	0.700575
487.000000	0.702812
486.000000	0.704199
485.000000	0.704749
484.000000	0.705967
483.000000	0.706721
482.000000	0.706839
481.000000	0.706744
480.000000	0.706437
479.000000	0.706148
478.000000	0.705748
477.000000	0.705276
476.000000	0.704441
475.000000	0.703451
474.000000	0.702569
473.000000	0.701776
472.000000	0.701110
471.000000	0.699766
470.000000	0.698044
469.000000	0.697210
468.000000	0.695796
467.000000	0.694361
466.000000	0.693222
465.000000	0.692245
464.000000	0.690662
463.000000	0.689908
462.000000	0.688760
461.000000	0.687887
460.000000	0.686462
459.000000	0.686101
458.000000	0.684754
457.000000	0.684136
456.000000	0.683462
455.000000	0.682003
454.000000	0.681390
453.000000	0.680869
452.000000	0.680155
451.000000	0.678629
450.000000	0.678600
449.000000	0.677689
448.000000	0.677051
447.000000	0.676438
446.000000	0.675309
445.000000	0.674072
444.000000	0.673588
443.000000	0.672963
442.000000	0.672041
441.000000	0.670785
440.000000	0.670143
439.000000	0.669155
438.000000	0.667276
437.000000	0.666895
436.000000	0.665635
435.000000	0.664230
434.000000	0.663949
433.000000	0.662084
432.000000	0.660980
431.000000	0.659904
430.000000	0.657950
429.000000	0.657003
428.000000	0.656138
427.000000	0.655225
426.000000	0.653712
425.000000	0.652357
424.000000	0.651596
423.000000	0.649983
422.000000	0.649353
421.000000	0.649040
420.000000	0.647451
419.000000	0.646192
418.000000	0.645092
417.000000	0.644382
416.000000	0.642566
415.000000	0.641385
414.000000	0.640454
413.000000	0.639588
412.000000	0.639139
411.000000	0.638586
410.000000	0.638404
409.000000	0.638413
408.000000	0.638959
407.000000	0.640378
406.000000	0.641667
405.000000	0.643828
404.000000	0.646908
403.000000	0.651379
402.000000	0.656444
401.000000	0.661641
400.000000	0.668833
399.000000	0.676684
398.000000	0.685578
397.000000	0.696104
396.000000	0.707725
395.000000	0.721798
394.000000	0.735780
393.000000	0.749870
392.000000	0.766174
391.000000	0.783142
390.000000	0.799838
389.000000	0.816717
388.000000	0.833978
387.000000	0.850013
386.000000	0.866034
385.000000	0.882921
384.000000	0.899571
383.000000	0.914919
382.000000	0.928735
381.000000	0.941562
380.000000	0.954488
379.000000	0.967742
378.000000	0.982220
377.000000	0.995140
376.000000	1.007875
375.000000	1.018434
374.000000	1.027883
373.000000	1.037073
372.000000	1.046682
371.000000	1.056100
370.000000	1.065003
369.000000	1.072909
368.000000	1.079461
367.000000	1.088449
366.000000	1.097353
365.000000	1.105338
364.000000	1.114161
363.000000	1.121510
362.000000	1.126792
361.000000	1.133664
360.000000	1.140121
359.000000	1.145980
358.000000	1.152561
357.000000	1.158026
356.000000	1.163818
355.000000	1.169095
354.000000	1.173771
353.000000	1.179761
352.000000	1.183960
351.000000	1.186400
350.000000	1.187790
349.000000	1.191927
348.000000	1.196725
347.000000	1.199779
346.000000	1.201618
345.000000	1.203185
344.000000	1.206112
343.000000	1.206838
342.000000	1.206627
341.000000	1.207586
340.000000	1.207570
339.000000	1.207165
338.000000	1.207437
337.000000	1.205455
336.000000	1.205491
335.000000	1.208447
334.000000	1.204633
333.000000	1.203413
332.000000	1.203634
331.000000	1.201715
330.000000	1.198825
329.000000	1.196279
328.000000	1.196191
327.000000	1.193009
326.000000	1.189969
325.000000	1.191506
324.000000	1.189990
323.000000	1.188914
322.000000	1.188086
321.000000	1.182253
320.000000	1.180119
319.000000	1.185057
318.000000	1.190317
317.000000	1.187936
316.000000	1.186452
315.000000	1.186140
314.000000	1.185858
313.000000	1.184156
312.000000	1.181166
311.000000	1.180171
310.000000	1.181242
309.000000	1.178444
308.000000	1.178593
307.000000	1.177409
306.000000	1.175852
305.000000	1.178131
304.000000	1.174874
303.000000	1.177669
302.000000	1.178801
301.000000	1.176036
300.000000	1.177516
299.000000	1.179249
298.000000	1.178146
297.000000	1.180613
296.000000	1.176716
295.000000	1.180608
294.000000	1.178220
293.000000	1.178378
292.000000	1.181032
291.000000	1.182373
290.000000	1.182761
289.000000	1.185398
288.000000	1.183109
287.000000	1.181848
286.000000	1.181837
285.000000	1.181027
284.000000	1.180819
283.000000	1.183036
282.000000	1.180693
281.000000	1.178620
280.000000	1.182789
279.000000	1.179282
278.000000	1.175683
277.000000	1.175778
276.000000	1.176061
275.000000	1.174140
274.000000	1.174542
273.000000	1.174835
272.000000	1.172541
271.000000	1.174386
270.000000	1.174426
269.000000	1.171763
268.000000	1.172207
267.000000	1.169432
266.000000	1.169651
265.000000	1.169803
264.000000	1.170568
263.000000	1.169084
262.000000	1.165031
261.000000	1.167027
260.000000	1.166491
259.000000	1.165712
258.000000	1.164248
257.000000	1.164284
256.000000	1.164156
255.000000	1.162499
254.000000	1.165189
253.000000	1.163301
252.000000	1.163305
251.000000	1.162528
250.000000	1.159815
249.000000	1.161011
248.000000	1.158693
247.000000	1.161536
246.000000	1.159222
245.000000	1.158790
244.000000	1.157463
243.000000	1.154461
242.000000	1.157881
241.000000	1.153146
240.000000	1.156130
239.000000	1.153427
238.000000	1.150712
237.000000	1.151250
236.000000	1.149274
235.000000	1.148016
234.000000	1.147915
233.000000	1.149041
232.000000	1.145245
231.000000	1.143363
230.000000	1.141934
229.000000	1.142915
228.000000	1.139837
227.000000	1.140029
226.000000	1.136224
225.000000	1.135205
224.000000	1.135749
223.000000	1.133457
222.000000	1.130813
221.000000	1.130549
220.000000	1.126807
219.000000	1.125568
218.000000	1.122131
217.000000	1.122047
216.000000	1.121568
215.000000	1.118561
214.000000	1.113775
213.000000	1.115662
212.000000	1.113732
211.000000	1.113874
210.000000	1.109276
209.000000	1.107288
208.000000	1.101997
207.000000	1.102502
206.000000	1.100327
205.000000	1.096618
204.000000	1.086284
203.000000	1.086089
202.000000	1.080665
201.000000	1.077104
200.000000	1.069625
199.000000	1.069802
198.000000	1.064802
197.000000	1.055336
196.000000	1.049434
195.000000	1.042255
194.000000	1.022515
193.000000	1.014561
192.000000	0.989633
191.000000	0.940823
190.000000	0.838242
189.000000	0.638580
188.000000	0.353213
187.000000	0.101553
186.000000	0.048958
185.000000	0.011067
184.000000	0.003923
183.000000	-0.004943
182.000000	0.016690
181.000000	0.006537
180.000000	0.008159
179.000000	-0.017632
178.000000	-0.006471
177.000000	0.010218
176.000000	0.003125
175.000000	0.031131
