PE UV       SUBTECH     SPECTRUM    ASCII       PEDS        4.00        
   -1
Sample6.Sample.Raw.asc
25/05/30
12:09:03.00
25/05/30
12:09:03.00
tom jordan
DDQ R2
175.000000
1
Lambda 1050
1050L1807051
PerkinElmer UV WinLab 6.4.0.973 / 2.02.06 Lambda 900 UV/VIS/NIR, Jan 28 2016 16:58:34

0
0
3350/servo 860.8/2
0
0
UV/VIS
1
1
1
RBeamAtt,SBeamAtt,150mm sphere / downward view, WB InGaAs Detector
0
0
0
0
Program
Program
3350/servo 860.8/2
3350/0.2 860.8/0.2
3350/0.2 860.8/0.2
0
1.00
 
 
 
0
 
860.8
319.2
860.8
Front
100
 
S:100 R:100
 
0
0
0
 
0
 
 
 
0
 
 
0
0
0
0
0
 
 
 
 
0
0


0
0
#HDR
-1
-1
#GR
nm
A
1.0
0.0
2000.000000
-1.000000
1826
8
1.209518
-0.045459
#DATA
2000.000000	0.983199
1999.000000	0.989465
1998.000000	0.997116
1997.000000	1.000848
1996.000000	0.995224
1995.000000	0.991652
1994.000000	1.001066
1993.000000	0.980267
1992.000000	0.992967
1991.000000	0.981278
1990.000000	0.988216
1989.000000	1.000742
1988.000000	0.996436
1987.000000	1.003332
1986.000000	0.992695
1985.000000	1.004074
1984.000000	0.992349
1983.000000	0.997389
1982.000000	0.995956
1981.000000	0.996575
1980.000000	1.003033
1979.000000	0.988842
1978.000000	1.004722
1977.000000	1.000335
1976.000000	1.005718
1975.000000	0.999592
1974.000000	1.003709
1973.000000	1.005890
1972.000000	0.999733
1971.000000	1.001810
1970.000000	1.001051
1969.000000	1.000287
1968.000000	0.996969
1967.000000	0.999771
1966.000000	0.991684
1965.000000	0.994214
1964.000000	0.988136
1963.000000	0.990273
1962.000000	0.993916
1961.000000	0.991234
1960.000000	1.006190
1959.000000	1.015904
1958.000000	1.004656
1957.000000	0.991585
1956.000000	0.988534
1955.000000	0.998209
1954.000000	1.004413
1953.000000	0.997719
1952.000000	0.999764
1951.000000	0.998668
1950.000000	1.005612
1949.000000	0.994992
1948.000000	0.993635
1947.000000	0.998411
1946.000000	0.986698
1945.000000	0.999008
1944.000000	0.983665
1943.000000	0.987479
1942.000000	0.977676
1941.000000	0.989807
1940.000000	0.996822
1939.000000	1.004590
1938.000000	1.006228
1937.000000	0.990149
1936.000000	0.990059
1935.000000	0.979341
1934.000000	0.995791
1933.000000	0.987734
1932.000000	1.003240
1931.000000	1.005515
1930.000000	0.984261
1929.000000	0.992527
1928.000000	0.976964
1927.000000	0.988909
1926.000000	0.994599
1925.000000	0.991035
1924.000000	0.968408
1923.000000	0.958957
1922.000000	0.980166
1921.000000	0.995291
1920.000000	0.989823
1919.000000	0.984701
1918.000000	0.997166
1917.000000	0.997001
1916.000000	0.999382
1915.000000	0.992395
1914.000000	0.978397
1913.000000	0.963828
1912.000000	0.964885
1911.000000	0.976944
1910.000000	0.984146
1909.000000	0.982019
1908.000000	0.989357
1907.000000	0.991327
1906.000000	0.994700
1905.000000	0.991772
1904.000000	0.984554
1903.000000	0.980402
1902.000000	0.973109
1901.000000	0.981718
1900.000000	0.983048
1899.000000	0.989454
1898.000000	1.004296
1897.000000	0.988783
1896.000000	0.983884
1895.000000	0.984797
1894.000000	0.994764
1893.000000	0.990064
1892.000000	0.979451
1891.000000	0.982825
1890.000000	0.990147
1889.000000	0.985959
1888.000000	0.982067
1887.000000	0.989022
1886.000000	0.990331
1885.000000	0.986609
1884.000000	0.986543
1883.000000	0.988603
1882.000000	0.989799
1881.000000	0.985990
1880.000000	0.978958
1879.000000	0.977694
1878.000000	0.980428
1877.000000	0.985589
1876.000000	0.985934
1875.000000	0.982405
1874.000000	0.977187
1873.000000	0.976368
1872.000000	0.987720
1871.000000	0.991223
1870.000000	0.997105
1869.000000	0.994167
1868.000000	0.983820
1867.000000	0.979178
1866.000000	0.975631
1865.000000	0.981285
1864.000000	0.985883
1863.000000	0.990708
1862.000000	0.986836
1861.000000	0.991230
1860.000000	0.986707
1859.000000	0.979302
1858.000000	0.981749
1857.000000	0.980111
1856.000000	0.982263
1855.000000	0.985173
1854.000000	0.982474
1853.000000	0.990602
1852.000000	0.988080
1851.000000	0.988180
1850.000000	0.986667
1849.000000	0.986405
1848.000000	0.988898
1847.000000	0.983955
1846.000000	0.990359
1845.000000	0.991341
1844.000000	0.982987
1843.000000	0.979717
1842.000000	0.977843
1841.000000	0.996275
1840.000000	0.988129
1839.000000	0.988108
1838.000000	0.990146
1837.000000	0.989760
1836.000000	0.994228
1835.000000	0.989283
1834.000000	0.987907
1833.000000	0.987674
1832.000000	0.989364
1831.000000	0.986297
1830.000000	0.989746
1829.000000	0.986598
1828.000000	0.987101
1827.000000	0.981732
1826.000000	0.987000
1825.000000	0.988820
1824.000000	0.987567
1823.000000	0.988132
1822.000000	0.987265
1821.000000	0.993799
1820.000000	0.987427
1819.000000	0.990650
1818.000000	0.989351
1817.000000	0.991043
1816.000000	0.990640
1815.000000	0.987677
1814.000000	0.987369
1813.000000	0.987418
1812.000000	0.983988
1811.000000	0.987382
1810.000000	0.994583
1809.000000	0.991371
1808.000000	0.993272
1807.000000	0.988701
1806.000000	0.985458
1805.000000	0.984450
1804.000000	0.981836
1803.000000	0.992338
1802.000000	0.991201
1801.000000	0.992892
1800.000000	0.990089
1799.000000	0.985893
1798.000000	0.990010
1797.000000	0.983682
1796.000000	0.990981
1795.000000	0.990992
1794.000000	0.996272
1793.000000	0.990280
1792.000000	0.989936
1791.000000	0.989236
1790.000000	0.989954
1789.000000	0.982386
1788.000000	0.990803
1787.000000	0.986811
1786.000000	0.980989
1785.000000	0.996935
1784.000000	0.983447
1783.000000	0.986792
1782.000000	0.983515
1781.000000	0.984368
1780.000000	0.982091
1779.000000	0.989481
1778.000000	0.979232
1777.000000	0.985925
1776.000000	0.984243
1775.000000	0.981838
1774.000000	0.978253
1773.000000	0.974935
1772.000000	0.979721
1771.000000	0.980400
1770.000000	0.983588
1769.000000	0.987481
1768.000000	0.982651
1767.000000	0.984046
1766.000000	0.978042
1765.000000	0.981074
1764.000000	0.979598
1763.000000	0.988257
1762.000000	0.978589
1761.000000	0.986745
1760.000000	0.982661
1759.000000	0.981168
1758.000000	0.982693
1757.000000	0.987454
1756.000000	0.981864
1755.000000	0.977548
1754.000000	0.978488
1753.000000	0.981335
1752.000000	0.980611
1751.000000	0.978471
1750.000000	0.983091
1749.000000	0.975330
1748.000000	0.984192
1747.000000	0.988655
1746.000000	0.980463
1745.000000	0.978935
1744.000000	0.982461
1743.000000	0.979401
1742.000000	0.969356
1741.000000	0.975111
1740.000000	0.975070
1739.000000	0.983625
1738.000000	0.980226
1737.000000	0.980648
1736.000000	0.981609
1735.000000	0.977422
1734.000000	0.975878
1733.000000	0.978429
1732.000000	0.980158
1731.000000	0.978493
1730.000000	0.982804
1729.000000	0.979766
1728.000000	0.976944
1727.000000	0.973420
1726.000000	0.972464
1725.000000	0.975209
1724.000000	0.975401
1723.000000	0.981484
1722.000000	0.977957
1721.000000	0.975813
1720.000000	0.974172
1719.000000	0.974112
1718.000000	0.976486
1717.000000	0.977881
1716.000000	0.974235
1715.000000	0.973019
1714.000000	0.980000
1713.000000	0.974694
1712.000000	0.971171
1711.000000	0.976368
1710.000000	0.979191
1709.000000	0.973459
1708.000000	0.970771
1707.000000	0.972117
1706.000000	0.972362
1705.000000	0.974522
1704.000000	0.975257
1703.000000	0.977169
1702.000000	0.976202
1701.000000	0.973522
1700.000000	0.974162
1699.000000	0.977591
1698.000000	0.975699
1697.000000	0.972350
1696.000000	0.975316
1695.000000	0.972321
1694.000000	0.972887
1693.000000	0.971000
1692.000000	0.974110
1691.000000	0.970779
1690.000000	0.972191
1689.000000	0.975043
1688.000000	0.978627
1687.000000	0.976133
1686.000000	0.973766
1685.000000	0.975104
1684.000000	0.971055
1683.000000	0.974585
1682.000000	0.974382
1681.000000	0.975003
1680.000000	0.972449
1679.000000	0.972051
1678.000000	0.970208
1677.000000	0.970116
1676.000000	0.970748
1675.000000	0.972560
1674.000000	0.972019
1673.000000	0.972142
1672.000000	0.973540
1671.000000	0.969417
1670.000000	0.970725
1669.000000	0.968679
1668.000000	0.966927
1667.000000	0.968118
1666.000000	0.968715
1665.000000	0.969264
1664.000000	0.967672
1663.000000	0.968206
1662.000000	0.969438
1661.000000	0.972112
1660.000000	0.966768
1659.000000	0.970214
1658.000000	0.973842
1657.000000	0.969572
1656.000000	0.969096
1655.000000	0.966143
1654.000000	0.965021
1653.000000	0.964973
1652.000000	0.968016
1651.000000	0.971102
1650.000000	0.970450
1649.000000	0.969176
1648.000000	0.971049
1647.000000	0.968833
1646.000000	0.966145
1645.000000	0.969670
1644.000000	0.969654
1643.000000	0.969071
1642.000000	0.967854
1641.000000	0.964846
1640.000000	0.964501
1639.000000	0.966413
1638.000000	0.969618
1637.000000	0.969627
1636.000000	0.969625
1635.000000	0.969826
1634.000000	0.966878
1633.000000	0.964568
1632.000000	0.969082
1631.000000	0.967291
1630.000000	0.965935
1629.000000	0.966522
1628.000000	0.966197
1627.000000	0.969653
1626.000000	0.968903
1625.000000	0.965936
1624.000000	0.966010
1623.000000	0.966460
1622.000000	0.964278
1621.000000	0.965177
1620.000000	0.964580
1619.000000	0.964243
1618.000000	0.965245
1617.000000	0.964383
1616.000000	0.964534
1615.000000	0.963102
1614.000000	0.964136
1613.000000	0.964192
1612.000000	0.962386
1611.000000	0.961164
1610.000000	0.962501
1609.000000	0.962014
1608.000000	0.963101
1607.000000	0.964114
1606.000000	0.963309
1605.000000	0.964041
1604.000000	0.963767
1603.000000	0.961923
1602.000000	0.963727
1601.000000	0.959709
1600.000000	0.963385
1599.000000	0.962679
1598.000000	0.959783
1597.000000	0.959320
1596.000000	0.961851
1595.000000	0.960242
1594.000000	0.959822
1593.000000	0.961716
1592.000000	0.959141
1591.000000	0.960003
1590.000000	0.959390
1589.000000	0.962321
1588.000000	0.959028
1587.000000	0.956875
1586.000000	0.958851
1585.000000	0.959715
1584.000000	0.958842
1583.000000	0.958177
1582.000000	0.959940
1581.000000	0.957466
1580.000000	0.958990
1579.000000	0.958661
1578.000000	0.959965
1577.000000	0.957710
1576.000000	0.960532
1575.000000	0.958815
1574.000000	0.956600
1573.000000	0.958212
1572.000000	0.961704
1571.000000	0.957778
1570.000000	0.959954
1569.000000	0.958130
1568.000000	0.956882
1567.000000	0.956810
1566.000000	0.957513
1565.000000	0.955262
1564.000000	0.959061
1563.000000	0.951342
1562.000000	0.954365
1561.000000	0.959259
1560.000000	0.956508
1559.000000	0.957353
1558.000000	0.955239
1557.000000	0.955279
1556.000000	0.953447
1555.000000	0.954357
1554.000000	0.955986
1553.000000	0.956172
1552.000000	0.956282
1551.000000	0.955942
1550.000000	0.955203
1549.000000	0.950821
1548.000000	0.955160
1547.000000	0.951990
1546.000000	0.952601
1545.000000	0.955741
1544.000000	0.951544
1543.000000	0.954527
1542.000000	0.951187
1541.000000	0.953522
1540.000000	0.951958
1539.000000	0.950992
1538.000000	0.947619
1537.000000	0.950972
1536.000000	0.950309
1535.000000	0.953013
1534.000000	0.954907
1533.000000	0.952138
1532.000000	0.949638
1531.000000	0.948402
1530.000000	0.948949
1529.000000	0.946547
1528.000000	0.950300
1527.000000	0.945857
1526.000000	0.949872
1525.000000	0.948345
1524.000000	0.952423
1523.000000	0.950773
1522.000000	0.947650
1521.000000	0.950580
1520.000000	0.947255
1519.000000	0.952304
1518.000000	0.949433
1517.000000	0.950378
1516.000000	0.946353
1515.000000	0.947659
1514.000000	0.944101
1513.000000	0.949725
1512.000000	0.945158
1511.000000	0.948879
1510.000000	0.949751
1509.000000	0.947034
1508.000000	0.945654
1507.000000	0.943305
1506.000000	0.946031
1505.000000	0.946473
1504.000000	0.947381
1503.000000	0.947186
1502.000000	0.946964
1501.000000	0.943588
1500.000000	0.940558
1499.000000	0.943059
1498.000000	0.939943
1497.000000	0.942160
1496.000000	0.944293
1495.000000	0.945901
1494.000000	0.945733
1493.000000	0.946618
1492.000000	0.943653
1491.000000	0.944604
1490.000000	0.944219
1489.000000	0.942696
1488.000000	0.945894
1487.000000	0.944525
1486.000000	0.945782
1485.000000	0.938694
1484.000000	0.941820
1483.000000	0.941783
1482.000000	0.941683
1481.000000	0.939231
1480.000000	0.938916
1479.000000	0.940964
1478.000000	0.941984
1477.000000	0.942835
1476.000000	0.941444
1475.000000	0.941653
1474.000000	0.939270
1473.000000	0.941296
1472.000000	0.942744
1471.000000	0.941929
1470.000000	0.940429
1469.000000	0.937174
1468.000000	0.936323
1467.000000	0.936813
1466.000000	0.939184
1465.000000	0.938200
1464.000000	0.938382
1463.000000	0.937197
1462.000000	0.940132
1461.000000	0.937486
1460.000000	0.935908
1459.000000	0.935280
1458.000000	0.935510
1457.000000	0.937631
1456.000000	0.937412
1455.000000	0.938615
1454.000000	0.937236
1453.000000	0.937152
1452.000000	0.935926
1451.000000	0.935695
1450.000000	0.935762
1449.000000	0.937840
1448.000000	0.935367
1447.000000	0.934901
1446.000000	0.935561
1445.000000	0.934942
1444.000000	0.936500
1443.000000	0.933824
1442.000000	0.933493
1441.000000	0.932544
1440.000000	0.932358
1439.000000	0.933796
1438.000000	0.937027
1437.000000	0.934829
1436.000000	0.934906
1435.000000	0.934473
1434.000000	0.931442
1433.000000	0.933163
1432.000000	0.932626
1431.000000	0.932394
1430.000000	0.932300
1429.000000	0.933440
1428.000000	0.932109
1427.000000	0.930367
1426.000000	0.930433
1425.000000	0.932335
1424.000000	0.932009
1423.000000	0.932541
1422.000000	0.933861
1421.000000	0.931833
1420.000000	0.932242
1419.000000	0.931367
1418.000000	0.932180
1417.000000	0.931099
1416.000000	0.929763
1415.000000	0.930902
1414.000000	0.930793
1413.000000	0.928020
1412.000000	0.928935
1411.000000	0.928476
1410.000000	0.927019
1409.000000	0.928240
1408.000000	0.928807
1407.000000	0.928978
1406.000000	0.925594
1405.000000	0.926283
1404.000000	0.928375
1403.000000	0.927673
1402.000000	0.928439
1401.000000	0.927121
1400.000000	0.926814
1399.000000	0.930176
1398.000000	0.929410
1397.000000	0.928433
1396.000000	0.929248
1395.000000	0.927792
1394.000000	0.928230
1393.000000	0.927299
1392.000000	0.928100
1391.000000	0.928764
1390.000000	0.927487
1389.000000	0.925250
1388.000000	0.924622
1387.000000	0.924600
1386.000000	0.925299
1385.000000	0.925545
1384.000000	0.926827
1383.000000	0.927875
1382.000000	0.925416
1381.000000	0.921778
1380.000000	0.921859
1379.000000	0.924084
1378.000000	0.926230
1377.000000	0.926414
1376.000000	0.924563
1375.000000	0.923301
1374.000000	0.922223
1373.000000	0.921665
1372.000000	0.921058
1371.000000	0.919985
1370.000000	0.922587
1369.000000	0.922641
1368.000000	0.922162
1367.000000	0.921375
1366.000000	0.920493
1365.000000	0.919515
1364.000000	0.918743
1363.000000	0.919972
1362.000000	0.921926
1361.000000	0.922855
1360.000000	0.922989
1359.000000	0.923263
1358.000000	0.920496
1357.000000	0.920234
1356.000000	0.918257
1355.000000	0.917291
1354.000000	0.916838
1353.000000	0.919383
1352.000000	0.919986
1351.000000	0.916827
1350.000000	0.919007
1349.000000	0.919278
1348.000000	0.917718
1347.000000	0.917025
1346.000000	0.917320
1345.000000	0.916180
1344.000000	0.917482
1343.000000	0.918613
1342.000000	0.917404
1341.000000	0.917574
1340.000000	0.917490
1339.000000	0.916023
1338.000000	0.916355
1337.000000	0.916654
1336.000000	0.917552
1335.000000	0.916107
1334.000000	0.914703
1333.000000	0.913519
1332.000000	0.915512
1331.000000	0.914820
1330.000000	0.916455
1329.000000	0.916639
1328.000000	0.915517
1327.000000	0.915195
1326.000000	0.913691
1325.000000	0.913258
1324.000000	0.913093
1323.000000	0.914200
1322.000000	0.915117
1321.000000	0.914589
1320.000000	0.914427
1319.000000	0.914713
1318.000000	0.912931
1317.000000	0.913368
1316.000000	0.911987
1315.000000	0.913654
1314.000000	0.913762
1313.000000	0.912245
1312.000000	0.913150
1311.000000	0.911707
1310.000000	0.912075
1309.000000	0.912594
1308.000000	0.912194
1307.000000	0.911636
1306.000000	0.911904
1305.000000	0.910855
1304.000000	0.911007
1303.000000	0.909817
1302.000000	0.909202
1301.000000	0.909782
1300.000000	0.908503
1299.000000	0.908060
1298.000000	0.909073
1297.000000	0.909813
1296.000000	0.909192
1295.000000	0.907343
1294.000000	0.906480
1293.000000	0.906582
1292.000000	0.908684
1291.000000	0.908151
1290.000000	0.906380
1289.000000	0.906545
1288.000000	0.906919
1287.000000	0.907162
1286.000000	0.906137
1285.000000	0.905294
1284.000000	0.906059
1283.000000	0.907440
1282.000000	0.904592
1281.000000	0.904242
1280.000000	0.904037
1279.000000	0.905319
1278.000000	0.900867
1277.000000	0.901966
1276.000000	0.902664
1275.000000	0.904761
1274.000000	0.902934
1273.000000	0.904702
1272.000000	0.903367
1271.000000	0.902104
1270.000000	0.901548
1269.000000	0.900701
1268.000000	0.903376
1267.000000	0.902524
1266.000000	0.902073
1265.000000	0.900802
1264.000000	0.901113
1263.000000	0.898938
1262.000000	0.899283
1261.000000	0.899791
1260.000000	0.900682
1259.000000	0.899323
1258.000000	0.898652
1257.000000	0.898304
1256.000000	0.897195
1255.000000	0.897500
1254.000000	0.897044
1253.000000	0.896910
1252.000000	0.896400
1251.000000	0.896361
1250.000000	0.898254
1249.000000	0.897388
1248.000000	0.897079
1247.000000	0.895896
1246.000000	0.896841
1245.000000	0.895316
1244.000000	0.895764
1243.000000	0.894962
1242.000000	0.895762
1241.000000	0.894415
1240.000000	0.894933
1239.000000	0.894896
1238.000000	0.894647
1237.000000	0.895591
1236.000000	0.893319
1235.000000	0.894322
1234.000000	0.893712
1233.000000	0.894520
1232.000000	0.893628
1231.000000	0.893334
1230.000000	0.892816
1229.000000	0.893477
1228.000000	0.893399
1227.000000	0.892784
1226.000000	0.894850
1225.000000	0.893090
1224.000000	0.892916
1223.000000	0.890512
1222.000000	0.889809
1221.000000	0.890051
1220.000000	0.891437
1219.000000	0.890077
1218.000000	0.888640
1217.000000	0.888665
1216.000000	0.887800
1215.000000	0.889642
1214.000000	0.889680
1213.000000	0.889490
1212.000000	0.886981
1211.000000	0.888219
1210.000000	0.887599
1209.000000	0.888273
1208.000000	0.888203
1207.000000	0.887366
1206.000000	0.887691
1205.000000	0.887384
1204.000000	0.888226
1203.000000	0.888318
1202.000000	0.888485
1201.000000	0.885589
1200.000000	0.884077
1199.000000	0.884019
1198.000000	0.883736
1197.000000	0.884973
1196.000000	0.886318
1195.000000	0.885496
1194.000000	0.884167
1193.000000	0.883747
1192.000000	0.883340
1191.000000	0.882408
1190.000000	0.883237
1189.000000	0.884358
1188.000000	0.885026
1187.000000	0.883403
1186.000000	0.882305
1185.000000	0.882039
1184.000000	0.880975
1183.000000	0.880781
1182.000000	0.881099
1181.000000	0.881105
1180.000000	0.882008
1179.000000	0.882446
1178.000000	0.882077
1177.000000	0.880897
1176.000000	0.880587
1175.000000	0.879347
1174.000000	0.879110
1173.000000	0.880035
1172.000000	0.879352
1171.000000	0.878496
1170.000000	0.877141
1169.000000	0.877314
1168.000000	0.877434
1167.000000	0.877961
1166.000000	0.879049
1165.000000	0.878507
1164.000000	0.877723
1163.000000	0.876902
1162.000000	0.876202
1161.000000	0.875026
1160.000000	0.874127
1159.000000	0.875307
1158.000000	0.876343
1157.000000	0.876972
1156.000000	0.876931
1155.000000	0.875697
1154.000000	0.875522
1153.000000	0.875727
1152.000000	0.874542
1151.000000	0.874861
1150.000000	0.874556
1149.000000	0.874228
1148.000000	0.874434
1147.000000	0.875254
1146.000000	0.874158
1145.000000	0.871394
1144.000000	0.871068
1143.000000	0.872034
1142.000000	0.872892
1141.000000	0.871840
1140.000000	0.871046
1139.000000	0.870179
1138.000000	0.870213
1137.000000	0.869057
1136.000000	0.869882
1135.000000	0.870549
1134.000000	0.870098
1133.000000	0.870156
1132.000000	0.869587
1131.000000	0.869315
1130.000000	0.870162
1129.000000	0.870407
1128.000000	0.869708
1127.000000	0.869860
1126.000000	0.869208
1125.000000	0.867545
1124.000000	0.867959
1123.000000	0.866787
1122.000000	0.866936
1121.000000	0.867723
1120.000000	0.867263
1119.000000	0.867384
1118.000000	0.867525
1117.000000	0.866037
1116.000000	0.866595
1115.000000	0.865470
1114.000000	0.865077
1113.000000	0.865276
1112.000000	0.865703
1111.000000	0.866028
1110.000000	0.864083
1109.000000	0.863967
1108.000000	0.864303
1107.000000	0.863472
1106.000000	0.864098
1105.000000	0.864342
1104.000000	0.863419
1103.000000	0.863415
1102.000000	0.862308
1101.000000	0.861134
1100.000000	0.861264
1099.000000	0.862677
1098.000000	0.862244
1097.000000	0.862974
1096.000000	0.862213
1095.000000	0.862272
1094.000000	0.860274
1093.000000	0.859888
1092.000000	0.858229
1091.000000	0.858252
1090.000000	0.859263
1089.000000	0.860062
1088.000000	0.860012
1087.000000	0.857595
1086.000000	0.857966
1085.000000	0.856409
1084.000000	0.857064
1083.000000	0.856316
1082.000000	0.858052
1081.000000	0.859136
1080.000000	0.856947
1079.000000	0.858002
1078.000000	0.856435
1077.000000	0.855890
1076.000000	0.856821
1075.000000	0.856652
1074.000000	0.855145
1073.000000	0.855093
1072.000000	0.855783
1071.000000	0.854553
1070.000000	0.853353
1069.000000	0.853117
1068.000000	0.854343
1067.000000	0.852839
1066.000000	0.852214
1065.000000	0.852812
1064.000000	0.850873
1063.000000	0.852467
1062.000000	0.851544
1061.000000	0.855231
1060.000000	0.852373
1059.000000	0.850700
1058.000000	0.850647
1057.000000	0.848282
1056.000000	0.850450
1055.000000	0.847727
1054.000000	0.851116
1053.000000	0.849558
1052.000000	0.850113
1051.000000	0.850052
1050.000000	0.848024
1049.000000	0.849116
1048.000000	0.850559
1047.000000	0.850507
1046.000000	0.849126
1045.000000	0.850939
1044.000000	0.845166
1043.000000	0.847223
1042.000000	0.848539
1041.000000	0.847493
1040.000000	0.849599
1039.000000	0.848018
1038.000000	0.849759
1037.000000	0.847369
1036.000000	0.849212
1035.000000	0.846421
1034.000000	0.844928
1033.000000	0.843821
1032.000000	0.844034
1031.000000	0.844084
1030.000000	0.841895
1029.000000	0.843614
1028.000000	0.843461
1027.000000	0.843703
1026.000000	0.842550
1025.000000	0.842956
1024.000000	0.841968
1023.000000	0.843870
1022.000000	0.844398
1021.000000	0.840301
1020.000000	0.840269
1019.000000	0.838734
1018.000000	0.839323
1017.000000	0.842671
1016.000000	0.839972
1015.000000	0.839971
1014.000000	0.839334
1013.000000	0.839140
1012.000000	0.839604
1011.000000	0.838404
1010.000000	0.837311
1009.000000	0.836804
1008.000000	0.836563
1007.000000	0.838175
1006.000000	0.837092
1005.000000	0.837548
1004.000000	0.838182
1003.000000	0.835516
1002.000000	0.835194
1001.000000	0.836054
1000.000000	0.838245
999.000000	0.837559
998.000000	0.834643
997.000000	0.834639
996.000000	0.835216
995.000000	0.838425
994.000000	0.834408
993.000000	0.836052
992.000000	0.838378
991.000000	0.835180
990.000000	0.830493
989.000000	0.828131
988.000000	0.830363
987.000000	0.827552
986.000000	0.831336
985.000000	0.832856
984.000000	0.833420
983.000000	0.833874
982.000000	0.830600
981.000000	0.832328
980.000000	0.831532
979.000000	0.830982
978.000000	0.831557
977.000000	0.830769
976.000000	0.828213
975.000000	0.827516
974.000000	0.829521
973.000000	0.829687
972.000000	0.828272
971.000000	0.831466
970.000000	0.828427
969.000000	0.824902
968.000000	0.826387
967.000000	0.824162
966.000000	0.827752
965.000000	0.825773
964.000000	0.826603
963.000000	0.824804
962.000000	0.823627
961.000000	0.821831
960.000000	0.823941
959.000000	0.828631
958.000000	0.828483
957.000000	0.825225
956.000000	0.820237
955.000000	0.825301
954.000000	0.825775
953.000000	0.826614
952.000000	0.826272
951.000000	0.825079
950.000000	0.822547
949.000000	0.818976
948.000000	0.820321
947.000000	0.818071
946.000000	0.817262
945.000000	0.821459
944.000000	0.822585
943.000000	0.818392
942.000000	0.817690
941.000000	0.817469
940.000000	0.819786
939.000000	0.820401
938.000000	0.819174
937.000000	0.819124
936.000000	0.820508
935.000000	0.817633
934.000000	0.816057
933.000000	0.814521
932.000000	0.812566
931.000000	0.816328
930.000000	0.817391
929.000000	0.814393
928.000000	0.810943
927.000000	0.813530
926.000000	0.811456
925.000000	0.813083
924.000000	0.815556
923.000000	0.815307
922.000000	0.815001
921.000000	0.808287
920.000000	0.808400
919.000000	0.808813
918.000000	0.813012
917.000000	0.822566
916.000000	0.821929
915.000000	0.817474
914.000000	0.814267
913.000000	0.810757
912.000000	0.806060
911.000000	0.798075
910.000000	0.804360
909.000000	0.809666
908.000000	0.811927
907.000000	0.811289
906.000000	0.801712
905.000000	0.804037
904.000000	0.801514
903.000000	0.803538
902.000000	0.810178
901.000000	0.816858
900.000000	0.817408
899.000000	0.812060
898.000000	0.803698
897.000000	0.796597
896.000000	0.793619
895.000000	0.795354
894.000000	0.806653
893.000000	0.807841
892.000000	0.796146
891.000000	0.802194
890.000000	0.799069
889.000000	0.798340
888.000000	0.796280
887.000000	0.795579
886.000000	0.799290
885.000000	0.797042
884.000000	0.802605
883.000000	0.793489
882.000000	0.792319
881.000000	0.807522
880.000000	0.803383
879.000000	0.803276
878.000000	0.796268
877.000000	0.802349
876.000000	0.788628
875.000000	0.783604
874.000000	0.780988
873.000000	0.785662
872.000000	0.803406
871.000000	0.800609
870.000000	0.807019
869.000000	0.778534
868.000000	0.790676
867.000000	0.782009
866.000000	0.794807
865.000000	0.816393
864.000000	0.815017
863.000000	0.789996
862.000000	0.794882
861.000000	0.819153
860.000000	0.834020
859.000000	0.831665
858.000000	0.833971
857.000000	0.841299
856.000000	0.832951
855.000000	0.828189
854.000000	0.830855
853.000000	0.821856
852.000000	0.818147
851.000000	0.825726
850.000000	0.825530
849.000000	0.826276
848.000000	0.826301
847.000000	0.825608
846.000000	0.825776
845.000000	0.823533
844.000000	0.819085
843.000000	0.824606
842.000000	0.821578
841.000000	0.820165
840.000000	0.819096
839.000000	0.819386
838.000000	0.817761
837.000000	0.815697
836.000000	0.814518
835.000000	0.815820
834.000000	0.815243
833.000000	0.816725
832.000000	0.814617
831.000000	0.813621
830.000000	0.812859
829.000000	0.814762
828.000000	0.812989
827.000000	0.812988
826.000000	0.812669
825.000000	0.809993
824.000000	0.811251
823.000000	0.814619
822.000000	0.809736
821.000000	0.810198
820.000000	0.809033
819.000000	0.808799
818.000000	0.807358
817.000000	0.808415
816.000000	0.808445
815.000000	0.808399
814.000000	0.807636
813.000000	0.804172
812.000000	0.805254
811.000000	0.804474
810.000000	0.805297
809.000000	0.802385
808.000000	0.803586
807.000000	0.804319
806.000000	0.803421
805.000000	0.803100
804.000000	0.802899
803.000000	0.803210
802.000000	0.802184
801.000000	0.800735
800.000000	0.801033
799.000000	0.801694
798.000000	0.800092
797.000000	0.800724
796.000000	0.799654
795.000000	0.800265
794.000000	0.797882
793.000000	0.799709
792.000000	0.796697
791.000000	0.799387
790.000000	0.797069
789.000000	0.796909
788.000000	0.797530
787.000000	0.796719
786.000000	0.796281
785.000000	0.794727
784.000000	0.795893
783.000000	0.794208
782.000000	0.793799
781.000000	0.792726
780.000000	0.794263
779.000000	0.793377
778.000000	0.793998
777.000000	0.791886
776.000000	0.791436
775.000000	0.792382
774.000000	0.790665
773.000000	0.789276
772.000000	0.789846
771.000000	0.790222
770.000000	0.790496
769.000000	0.789311
768.000000	0.787215
767.000000	0.787134
766.000000	0.787504
765.000000	0.786982
764.000000	0.787673
763.000000	0.786591
762.000000	0.786596
761.000000	0.785884
760.000000	0.785911
759.000000	0.785509
758.000000	0.785430
757.000000	0.783534
756.000000	0.784843
755.000000	0.782551
754.000000	0.783265
753.000000	0.782818
752.000000	0.782534
751.000000	0.783068
750.000000	0.781241
749.000000	0.780401
748.000000	0.781315
747.000000	0.779429
746.000000	0.778778
745.000000	0.778062
744.000000	0.778283
743.000000	0.777309
742.000000	0.776780
741.000000	0.776677
740.000000	0.776055
739.000000	0.775026
738.000000	0.775574
737.000000	0.774374
736.000000	0.774394
735.000000	0.774063
734.000000	0.774138
733.000000	0.774258
732.000000	0.773789
731.000000	0.772098
730.000000	0.771409
729.000000	0.771053
728.000000	0.771644
727.000000	0.770848
726.000000	0.770153
725.000000	0.770340
724.000000	0.770100
723.000000	0.768962
722.000000	0.767763
721.000000	0.767000
720.000000	0.767641
719.000000	0.767345
718.000000	0.766793
717.000000	0.766912
716.000000	0.765771
715.000000	0.764873
714.000000	0.764968
713.000000	0.764381
712.000000	0.764095
711.000000	0.763436
710.000000	0.762952
709.000000	0.762592
708.000000	0.762369
707.000000	0.761721
706.000000	0.761709
705.000000	0.760178
704.000000	0.759342
703.000000	0.759632
702.000000	0.758837
701.000000	0.757894
700.000000	0.758072
699.000000	0.757918
698.000000	0.757112
697.000000	0.756310
696.000000	0.755831
695.000000	0.755934
694.000000	0.755481
693.000000	0.754049
692.000000	0.753805
691.000000	0.753598
690.000000	0.753018
689.000000	0.752970
688.000000	0.752120
687.000000	0.751525
686.000000	0.750785
685.000000	0.750510
684.000000	0.749922
683.000000	0.749407
682.000000	0.749117
681.000000	0.748342
680.000000	0.747757
679.000000	0.746926
678.000000	0.746299
677.000000	0.746207
676.000000	0.746361
675.000000	0.745621
674.000000	0.744612
673.000000	0.744469
672.000000	0.743658
671.000000	0.742831
670.000000	0.743042
669.000000	0.742780
668.000000	0.741056
667.000000	0.740277
666.000000	0.740530
665.000000	0.740129
664.000000	0.738621
663.000000	0.738010
662.000000	0.738486
661.000000	0.738225
660.000000	0.737571
659.000000	0.737300
658.000000	0.736398
657.000000	0.736154
656.000000	0.735877
655.000000	0.735049
654.000000	0.734385
653.000000	0.733456
652.000000	0.733042
651.000000	0.732745
650.000000	0.732706
649.000000	0.732554
648.000000	0.731746
647.000000	0.730527
646.000000	0.729632
645.000000	0.729135
644.000000	0.728776
643.000000	0.728905
642.000000	0.728513
641.000000	0.727388
640.000000	0.726384
639.000000	0.726086
638.000000	0.726141
637.000000	0.725534
636.000000	0.724835
635.000000	0.724551
634.000000	0.724402
633.000000	0.723750
632.000000	0.722409
631.000000	0.721581
630.000000	0.721587
629.000000	0.721514
628.000000	0.720822
627.000000	0.719690
626.000000	0.719136
625.000000	0.718987
624.000000	0.718662
623.000000	0.717544
622.000000	0.717062
621.000000	0.716472
620.000000	0.716266
619.000000	0.715509
618.000000	0.714914
617.000000	0.714347
616.000000	0.713642
615.000000	0.713543
614.000000	0.713024
613.000000	0.712411
612.000000	0.711485
611.000000	0.711008
610.000000	0.710994
609.000000	0.710336
608.000000	0.709758
607.000000	0.709186
606.000000	0.709392
605.000000	0.709046
604.000000	0.708336
603.000000	0.707578
602.000000	0.707633
601.000000	0.707450
600.000000	0.706813
599.000000	0.706786
598.000000	0.706368
597.000000	0.706881
596.000000	0.706805
595.000000	0.706590
594.000000	0.706730
593.000000	0.707737
592.000000	0.708349
591.000000	0.708604
590.000000	0.709514
589.000000	0.710429
588.000000	0.711237
587.000000	0.712698
586.000000	0.713694
585.000000	0.715580
584.000000	0.716862
583.000000	0.717998
582.000000	0.719296
581.000000	0.720340
580.000000	0.721187
579.000000	0.721910
578.000000	0.722618
577.000000	0.724014
576.000000	0.724117
575.000000	0.723605
574.000000	0.724777
573.000000	0.724404
572.000000	0.724404
571.000000	0.723960
570.000000	0.723420
569.000000	0.723410
568.000000	0.723606
567.000000	0.722709
566.000000	0.721906
565.000000	0.721494
564.000000	0.721461
563.000000	0.720240
562.000000	0.719831
561.000000	0.718834
560.000000	0.719011
559.000000	0.718890
558.000000	0.717631
557.000000	0.716958
556.000000	0.715847
555.000000	0.715083
554.000000	0.714482
553.000000	0.713745
552.000000	0.712914
551.000000	0.712277
550.000000	0.711270
549.000000	0.710450
548.000000	0.709550
547.000000	0.709417
546.000000	0.708124
545.000000	0.707621
544.000000	0.707017
543.000000	0.705982
542.000000	0.704985
541.000000	0.704222
540.000000	0.703954
539.000000	0.702923
538.000000	0.701957
537.000000	0.701543
536.000000	0.701281
535.000000	0.700969
534.000000	0.700238
533.000000	0.699552
532.000000	0.698951
531.000000	0.698321
530.000000	0.697831
529.000000	0.696710
528.000000	0.696413
527.000000	0.695999
526.000000	0.695032
525.000000	0.694585
524.000000	0.694045
523.000000	0.692904
522.000000	0.692171
521.000000	0.691892
520.000000	0.690759
519.000000	0.689968
518.000000	0.689230
517.000000	0.688544
516.000000	0.686823
515.000000	0.686223
514.000000	0.685001
513.000000	0.683752
512.000000	0.682910
511.000000	0.682273
510.000000	0.681200
509.000000	0.680783
508.000000	0.679957
507.000000	0.678961
506.000000	0.679007
505.000000	0.678185
504.000000	0.678005
503.000000	0.678121
502.000000	0.679584
501.000000	0.679579
500.000000	0.680227
499.000000	0.681211
498.000000	0.683376
497.000000	0.684523
496.000000	0.685805
495.000000	0.688368
494.000000	0.690491
493.000000	0.692742
492.000000	0.694688
491.000000	0.696540
490.000000	0.698117
489.000000	0.699812
488.000000	0.701428
487.000000	0.702766
486.000000	0.703883
485.000000	0.705086
484.000000	0.706129
483.000000	0.706523
482.000000	0.706897
481.000000	0.706747
480.000000	0.706875
479.000000	0.706542
478.000000	0.705884
477.000000	0.705696
476.000000	0.704859
475.000000	0.703941
474.000000	0.702768
473.000000	0.702014
472.000000	0.701147
471.000000	0.699916
470.000000	0.698551
469.000000	0.697639
468.000000	0.696825
467.000000	0.695409
466.000000	0.694038
465.000000	0.692766
464.000000	0.691222
463.000000	0.690447
462.000000	0.689311
461.000000	0.687955
460.000000	0.686922
459.000000	0.686330
458.000000	0.685123
457.000000	0.684209
456.000000	0.683818
455.000000	0.682759
454.000000	0.682455
453.000000	0.681555
452.000000	0.681105
451.000000	0.679504
450.000000	0.678705
449.000000	0.678398
448.000000	0.677048
447.000000	0.676380
446.000000	0.675797
445.000000	0.674490
444.000000	0.674128
443.000000	0.673493
442.000000	0.672519
441.000000	0.671563
440.000000	0.670646
439.000000	0.669587
438.000000	0.668145
437.000000	0.667271
436.000000	0.666015
435.000000	0.664603
434.000000	0.664297
433.000000	0.662381
432.000000	0.660826
431.000000	0.659826
430.000000	0.658591
429.000000	0.657697
428.000000	0.656094
427.000000	0.655116
426.000000	0.654608
425.000000	0.653698
424.000000	0.652340
423.000000	0.650957
422.000000	0.650228
421.000000	0.649078
420.000000	0.647976
419.000000	0.646515
418.000000	0.645253
417.000000	0.644106
416.000000	0.642667
415.000000	0.642129
414.000000	0.641229
413.000000	0.640322
412.000000	0.639562
411.000000	0.639153
410.000000	0.639085
409.000000	0.638801
408.000000	0.639136
407.000000	0.639926
406.000000	0.641645
405.000000	0.644784
404.000000	0.647555
403.000000	0.651451
402.000000	0.656481
401.000000	0.661830
400.000000	0.668973
399.000000	0.677341
398.000000	0.685734
397.000000	0.695973
396.000000	0.708571
395.000000	0.722052
394.000000	0.735693
393.000000	0.750855
392.000000	0.766994
391.000000	0.783412
390.000000	0.799656
389.000000	0.817009
388.000000	0.834929
387.000000	0.851988
386.000000	0.868405
385.000000	0.884725
384.000000	0.900557
383.000000	0.914927
382.000000	0.929131
381.000000	0.942452
380.000000	0.955087
379.000000	0.968053
378.000000	0.983609
377.000000	0.997772
376.000000	1.009076
375.000000	1.018660
374.000000	1.027415
373.000000	1.036605
372.000000	1.047167
371.000000	1.055537
370.000000	1.063624
369.000000	1.072502
368.000000	1.080670
367.000000	1.091005
366.000000	1.098094
365.000000	1.104995
364.000000	1.114382
363.000000	1.121350
362.000000	1.127153
361.000000	1.132774
360.000000	1.137827
359.000000	1.145362
358.000000	1.152718
357.000000	1.156811
356.000000	1.161275
355.000000	1.167692
354.000000	1.174036
353.000000	1.179368
352.000000	1.183045
351.000000	1.187613
350.000000	1.189199
349.000000	1.191615
348.000000	1.196304
347.000000	1.200071
346.000000	1.201218
345.000000	1.203551
344.000000	1.205518
343.000000	1.208044
342.000000	1.206708
341.000000	1.207351
340.000000	1.209117
339.000000	1.209518
338.000000	1.208394
337.000000	1.207428
336.000000	1.206057
335.000000	1.207554
334.000000	1.207834
333.000000	1.203333
332.000000	1.203028
331.000000	1.201759
330.000000	1.201088
329.000000	1.201025
328.000000	1.197453
327.000000	1.192826
326.000000	1.193561
325.000000	1.192373
324.000000	1.192382
323.000000	1.188544
322.000000	1.189219
321.000000	1.181940
320.000000	1.184198
319.000000	1.191600
318.000000	1.192289
317.000000	1.188748
316.000000	1.185572
315.000000	1.183525
314.000000	1.184643
313.000000	1.183156
312.000000	1.181571
311.000000	1.179916
310.000000	1.181957
309.000000	1.179033
308.000000	1.177452
307.000000	1.174340
306.000000	1.172666
305.000000	1.176409
304.000000	1.179153
303.000000	1.179375
302.000000	1.177471
301.000000	1.178730
300.000000	1.178691
299.000000	1.179380
298.000000	1.179602
297.000000	1.180001
296.000000	1.180443
295.000000	1.177725
294.000000	1.179063
293.000000	1.181178
292.000000	1.181355
291.000000	1.183362
290.000000	1.182779
289.000000	1.183165
288.000000	1.185651
287.000000	1.182058
286.000000	1.183024
285.000000	1.180079
284.000000	1.180888
283.000000	1.181070
282.000000	1.183918
281.000000	1.179044
280.000000	1.176705
279.000000	1.177120
278.000000	1.175657
277.000000	1.176813
276.000000	1.176277
275.000000	1.175112
274.000000	1.176874
273.000000	1.174620
272.000000	1.174495
271.000000	1.172817
270.000000	1.171419
269.000000	1.174300
268.000000	1.171699
267.000000	1.170325
266.000000	1.168244
265.000000	1.170156
264.000000	1.166602
263.000000	1.167562
262.000000	1.166197
261.000000	1.165875
260.000000	1.165878
259.000000	1.166639
258.000000	1.165775
257.000000	1.164724
256.000000	1.165373
255.000000	1.166082
254.000000	1.163541
253.000000	1.162488
252.000000	1.163556
251.000000	1.159114
250.000000	1.160288
249.000000	1.161061
248.000000	1.160318
247.000000	1.160750
246.000000	1.157150
245.000000	1.155134
244.000000	1.156940
243.000000	1.154242
242.000000	1.154007
241.000000	1.155141
240.000000	1.154418
239.000000	1.153991
238.000000	1.152592
237.000000	1.154105
236.000000	1.150292
235.000000	1.150230
234.000000	1.145321
233.000000	1.147416
232.000000	1.147329
231.000000	1.147056
230.000000	1.144552
229.000000	1.142923
228.000000	1.140992
227.000000	1.141080
226.000000	1.138263
225.000000	1.135092
224.000000	1.134638
223.000000	1.134006
222.000000	1.134784
221.000000	1.127600
220.000000	1.129340
219.000000	1.127079
218.000000	1.123848
217.000000	1.121508
216.000000	1.121850
215.000000	1.120514
214.000000	1.119892
213.000000	1.116289
212.000000	1.112919
211.000000	1.112345
210.000000	1.108440
209.000000	1.104457
208.000000	1.102485
207.000000	1.101869
206.000000	1.098066
205.000000	1.092365
204.000000	1.090484
203.000000	1.088099
202.000000	1.087069
201.000000	1.081198
200.000000	1.068858
199.000000	1.063450
198.000000	1.055791
197.000000	1.052994
196.000000	1.050687
195.000000	1.042769
194.000000	1.035275
193.000000	1.007962
192.000000	0.973467
191.000000	0.948084
190.000000	0.840941
189.000000	0.644436
188.000000	0.374248
187.000000	0.081889
186.000000	0.012658
185.000000	0.016772
184.000000	0.011267
183.000000	0.029040
182.000000	0.003828
181.000000	-0.023335
180.000000	-0.045459
179.000000	-0.031638
178.000000	-0.005797
177.000000	-0.013761
176.000000	-0.014187
175.000000	0.035057
